,x,y,yf
0,0,2069,15.911118922917225
1,1,2068,13.13532880573733
2,2,2068,11.36575491991379
3,3,2068,9.607529704421442
4,4,2069,8.86582541497153
5,5,2070,8.145791944251112
6,6,2070,6.452547918285574
7,7,2070,4.791139935444969
8,8,2070,3.1665287978538137
9,9,2070,1.5835653333152542
10,10,2072,2.0469931858725725
11,11,2074,2.561388041972788
12,12,2075,2.1311880919325477
13,13,2077,2.7606770995133907
14,14,2077,1.4539468113919787
15,15,2077,0.21490264310514196
16,16,2077,-0.9527778529828721
17,17,2078,-1.0456322543830137
18,18,2079,-1.0604636771834786
19,19,2080,-0.9943475663618511
20,20,2081,-0.8446161132395389
21,21,2082,-0.6088789516246926
22,22,2083,-0.2850106548155429
23,23,2085,1.1288468724833676
24,24,2087,2.6342404678064453
25,25,2089,4.232416243104004
26,26,2091,5.924277903111214
27,27,2093,7.710405049275495
28,28,2095,9.591040727675315
29,29,2096,10.566138989888863
30,30,2097,11.635328422244756
31,31,2097,11.797935704381347
32,32,2097,12.052978362634065
33,33,2098,13.399169346637628
34,34,2101,16.834944178793826
35,35,2102,18.35843047400305
36,36,2103,19.967525191312376
37,37,2103,20.659834319130564
38,38,2101,19.432677717426614
39,39,2099,18.28312705768486
40,40,2098,18.208007425539364
41,41,2097,18.20388382930162
42,42,2096,18.26711261234506
43,43,2093,16.393829646597364
44,44,2088,12.579997961650086
45,45,2082,7.821408058304193
46,46,2076,3.1136894839983404
47,47,2070,-1.5476450034569282
48,48,2064,-6.1671868304363695
49,49,2059,-9.749597303848528
50,50,2054,-13.299636952614875
51,51,2049,-16.82210932485112
52,52,2047,-17.321841936791348
53,53,2044,-18.80369912980708
54,54,2042,-19.27249368246331
55,55,2040,-19.733047855165342
56,56,2038,-20.19016390477713
57,57,2036,-20.648621469710445
58,58,2035,-20.11313258810521
59,59,2033,-20.588355785983406
60,60,2032,-20.078809190696052
61,61,2031,-19.588890909657383
62,62,2030,-19.122841362038546
63,63,2031,-16.684668744055344
64,64,2032,-14.278155210548283
65,65,2032,-12.906805187024128
66,66,2033,-10.57388560593261
67,67,2033,-9.28257972897799
68,68,2032,-9.036030364804752
69,69,2031,-8.837410992672428
70,70,2030,-8.689906796642576
71,71,2030,-7.596589279041702
72,72,2031,-5.560269514074819
73,73,2033,-2.5833246855212852
74,74,2034,-0.6675732571462758
75,75,2035,1.1858006591055756
76,76,2034,0.9762090044288838
77,77,2033,0.703624233381563
78,78,2033,1.368381005699206
79,79,2033,1.9710077808307656
80,80,2033,2.512078648997306
81,81,2034,3.992091607864138
82,82,2033,3.41143789733524
83,83,2034,4.770531351145928
84,84,2034,5.069835787582801
85,85,2034,5.310077871687708
86,86,2035,6.492378165475964
87,87,2036,7.618305329985264
88,88,2035,6.689965492668507
89,89,2035,6.709967273492387
90,90,2034,5.681321724788516
91,91,2033,4.607309813625687
92,92,2032,3.491328690061027
93,93,2032,3.3368022053837274
94,94,2032,3.147107429539905
95,95,2032,2.9256075141233273
96,96,2031,1.6757000548875731
97,97,2032,2.400859505475501
98,98,2032,2.1046097179130467
99,99,2032,1.7905601578644843
100,100,2031,0.46234586099091457
101,101,2030,-0.8763580582987345
102,102,2030,-1.2218966186783495
103,103,2031,-0.5706257227139728
104,104,2032,0.08104916309005361
105,105,2033,0.7366878545652042
106,106,2033,0.399777241618295
107,107,2032,-0.9262746252866338
108,108,2030,-3.2381707488597957
109,109,2029,-4.532708878762172
110,110,2028,-5.806855237245235
111,111,2029,-5.057716340780549
112,112,2030,-4.282558224513137
113,113,2031,-3.4788196172202426
114,114,2031,-3.644129667832181
115,115,2031,-3.7762715039445944
116,116,2032,-2.873256873656668
117,117,2032,-2.9332984445397434
118,118,2032,-2.9548185615639944
119,119,2032,-2.9365103370245715
120,120,2031,-3.8773230159965784
121,121,2031,-3.7764463086933917
122,122,2031,-3.6333149929821884
123,123,2032,-2.44758571927869
124,124,2032,-2.2191659966100428
125,125,2032,-1.9481833309321983
126,126,2031,-2.635065215984586
127,127,2031,-2.2804900361083478
128,128,2032,-0.8854221739114241
129,129,2034,1.5489127226805168
130,130,2036,4.021058936317495
131,131,2037,5.529320321182558
132,132,2038,7.071777680250432
133,133,2039,8.64629121750938
134,134,2041,11.250498558600327
135,135,2043,13.881819053496429
136,136,2044,15.53748575891612
137,137,2045,17.214546338034378
138,138,2043,15.909843477511773
139,139,2041,14.620102791437557
140,140,2037,11.341845441641697
141,141,2035,10.071472061634767
142,142,2034,9.805251383760893
143,143,2033,9.539330767184635
144,144,2032,9.269800525693244
145,145,2033,10.992673398587215
146,146,2034,12.703901681509471
147,147,2035,14.399416044792344
148,148,2035,15.075127249618436
149,149,2034,14.726933342841946
150,150,2034,15.350753645047561
151,151,2034,15.942509342752297
152,152,2034,16.498194696184708
153,153,2034,17.013889368488318
154,154,2035,18.48578109764357
155,155,2035,18.910172140911516
156,156,2034,18.283512125112217
157,157,2035,19.602366440311695
158,158,2041,25.863437474252464
159,159,2054,39.06359590702724
160,160,2075,60.19990592786492
161,161,2095,80.26960172033044
162,162,2103,88.27012180264312
163,163,2090,75.19916386956947
164,164,2052,37.054680182356854
165,165,1995,-20.16505328723347
166,166,1929,-86.46148081401773
167,167,1867,-148.83577450610932
168,168,1823,-193.28883754142197
169,169,1805,-211.82129246866631
170,170,1817,-200.43350796394407
171,171,1856,-162.12560014599595
172,172,1910,-108.89742962283474
173,173,1964,-55.74857829252295
174,174,2009,-11.678300676099932
175,175,2036,14.314454194610756
176,176,2049,26.231099721952685
177,177,2054,30.07335019763152
178,178,2054,28.843200804061244
179,179,2054,27.542938465887953
180,180,2054,26.175108819200165
181,181,2055,25.742519446499916
182,182,2056,25.24820467517049
183,183,2058,25.695448038536973
184,184,2060,26.087771772952237
185,185,2062,26.428951964572438
186,186,2063,25.72297410234182
187,187,2063,23.97405174169124
188,188,2063,22.186569720824657
189,189,2062,19.365063922282925
190,190,2061,16.514226979052715
191,191,2063,16.638892007863358
192,192,2063,14.74399438192284
193,193,2064,13.834618343916544
194,194,2065,12.915925754912667
195,195,2065,10.993137826384523
196,196,2066,10.071543174992602
197,197,2068,10.156441702660523
198,198,2070,10.25316298419984
199,199,2071,9.367020464879175
200,200,2070,6.503281719874255
201,201,2069,3.6672080916656293
202,202,2068,0.8639771315529301
203,203,2068,-0.9012881539981068
204,204,2069,-1.623569775705815
205,205,2071,-1.2979781849911651
206,206,2072,-1.9197593069548613
207,207,2074,-1.4843117850416614
208,208,2074,-2.9872302907729797
209,209,2075,-3.4242734826606354
210,210,2076,-3.7914006273786685
211,211,2078,-3.084764825123501
212,212,2080,-2.300758869582187
213,213,2082,-1.436012215387632
214,214,2085,0.5125649310193392
215,215,2086,0.5477757723466521
216,216,2087,0.6721961280375108
217,217,2088,0.8881280305968406
218,218,2089,1.1975811017439462
219,219,2090,1.602254987207651
220,220,2091,2.1035229381829135
221,221,2093,3.7024433139600514
222,222,2095,5.399761489222584
223,223,2097,7.195912897165103
224,224,2098,8.091021912629378
225,225,2100,10.084933907684873
226,226,2101,11.177147122099978
227,227,2103,13.366879100632467
228,228,2106,16.65301694624141
229,229,2107,18.034127373449124
230,230,2108,19.508494648209314
231,231,2107,19.074058347893907
232,232,2105,17.728512219191956
233,233,2103,16.469265392056755
234,234,2101,15.29346857292167
235,235,2100,15.198067815293161
236,236,2098,14.179741746832175
237,237,2095,12.234962307611266
238,238,2091,9.359965741438096
239,239,2086,5.550799045212065
240,240,2080,0.8033031988381656
241,241,2075,-2.8868388224877704
242,242,2070,-6.524080162966303
243,243,2066,-9.113009080609597
244,244,2061,-12.658336903373833
245,245,2057,-15.164864266019231
246,246,2053,-17.637510994721936
247,247,2049,-20.08126570619111
248,248,2047,-20.501140592946296
249,249,2044,-21.902200904801056
250,250,2043,-21.289487621392137
251,251,2042,-20.668078854415363
252,252,2041,-20.043023359331343
253,253,2040,-19.419322156572875
254,254,2039,-18.80191044721328
255,255,2038,-18.195629305378283
256,256,2037,-17.605187164881702
257,257,2036,-17.035207070000467
258,258,2036,-15.490141028961856
259,259,2036,-13.97433417585873
260,260,2037,-11.491977502948357
261,261,2038,-9.04706135154502
262,262,2040,-5.6433618751546195
263,263,2040,-4.284439097154819
264,264,2039,-3.9736038646337706
265,265,2039,-2.7138911222708293
266,266,2039,-1.5081035266241285
267,267,2040,0.641309065734282
268,268,2040,1.7321556545787007
269,269,2041,3.762430856353379
270,270,2041,4.730193371620208
271,271,2040,4.633540371841704
272,272,2040,5.470634923489577
273,273,2040,6.239801999589624
274,274,2041,7.939740328823894
275,275,2041,8.569657375708777
276,276,2041,9.12930021833611
277,277,2041,9.618898205773558
278,278,2041,10.039055338334894
279,279,2040,9.390609260972596
280,280,2039,8.674532736830725
281,281,2037,6.8918411339352215
282,282,2037,7.04367151444678
283,283,2037,7.131389125210118
284,284,2037,7.156768463679749
285,285,2038,8.122109149952271
286,286,2038,8.030195367495372
287,287,2038,7.8842105703339485
288,288,2036,5.6875327922959
289,289,2035,4.44361365924049
290,290,2034,3.1558937028966865
291,291,2034,2.8278079353094183
292,292,2036,4.462866062898119
293,293,2037,5.0646367000662025
294,294,2037,4.636800879978235
295,295,2037,4.18314663678504
296,296,2035,1.7075311794674972
297,297,2035,1.2139015769214563
298,298,2034,-0.29379140197478204
299,299,2035,0.18844827679658405
300,300,2035,-0.33544054199735074
301,301,2035,-0.861486481001744
302,302,2034,-2.385755757265201
303,303,2034,-2.904320836389274
304,304,2035,-2.4133143589545867
305,305,2035,-2.9089669129188795
306,306,2035,-3.387607219279859
307,307,2035,-3.84570981150078
308,308,2035,-4.2798834927416
309,309,2034,-5.68684844984642
310,310,2033,-7.063466121777237
311,311,2032,-8.40673660301881
312,312,2032,-8.713832732661999
313,313,2033,-7.982133387559661
314,314,2033,-8.209218684337984
315,315,2033,-8.3928749538719
316,316,2034,-7.531120177493516
317,317,2034,-7.62222864307993
318,318,2033,-8.664690645060295
319,319,2032,-9.657235200772245
320,320,2031,-10.598846412121336
321,321,2032,-9.488752143872789
322,322,2034,-7.3264543457396005
323,323,2037,-4.111699623485128
324,324,2039,-1.8444861171343359
325,325,2039,-1.5250693821762242
326,326,2038,-2.1539565525091278
327,327,2035,-4.73192611725367
328,328,2034,-5.259998669246038
329,329,2032,-6.739475918243365
330,330,2033,-5.171903989466529
331,331,2033,-4.559115739028362
332,332,2034,-2.903159974706451
333,333,2036,-0.2063150268909686
334,334,2038,2.528925196472846
335,335,2040,5.299892616309421
336,336,2042,8.103707341669296
337,337,2043,9.93730491574798
338,338,2044,11.797421527309613
339,339,2045,13.680590657387203
340,340,2045,14.583167095202787
341,341,2045,15.501388878510372
342,342,2044,15.431370560831443
343,343,2043,15.369139717588016
344,344,2041,14.310599259967717
345,345,2038,12.251548854344804
346,346,2036,11.187749424052322
347,347,2034,10.114881148796627
348,348,2033,10.028597569839834
349,349,2032,9.924531926524644
350,350,2031,9.79833021712878
351,351,2031,10.645668276228172
352,352,2032,12.462247511154933
353,353,2034,15.243849064205156
354,354,2036,17.986302485428137
355,355,2037,19.685550329680638
356,356,2037,20.33763773679601
357,357,2036,19.93874435822651
358,358,2034,18.485178526349817
359,359,2033,17.973424219260664
360,360,2032,17.400107550901467
361,361,2032,17.76204799233677
362,362,2038,24.05630365039876
363,363,2050,36.28011455700131
364,364,2071,57.430989113710254
365,365,2092,78.50662442269382
366,366,2104,90.50495921996598
367,367,2097,83.4241884829084
368,368,2065,51.26277709634772
369,369,2011,-2.980527394168849
370,370,1943,-71.30668835564222
371,371,1877,-137.7163371978904
372,372,1828,-187.2098061737297
373,373,1806,-209.78713557809422
374,374,1816,-200.4481034391902
375,375,1853,-164.19225090736484
376,376,1907,-111.01886598775224
377,377,1961,-57.927016351946214
378,378,2006,-13.915428415162953
379,379,2035,14.017477765042726
380,380,2049,26.87361653048741
381,381,2054,30.65519427127566
382,382,2054,29.364698018627525
383,383,2053,27.00485646765644
384,384,2053,25.578653265338414
385,385,2056,27.089307315057734
386,386,2058,27.540241609043107
387,387,2060,27.935141791258552
388,388,2060,26.277891179853718
389,389,2060,24.572574445792625
390,390,2059,21.82345917776108
391,391,2059,20.034992709199937
392,392,2060,19.211782352824233
393,393,2061,18.358564286302595
394,394,2061,16.48021448584831
395,395,2062,15.581737854480108
396,396,2062,13.668203567615965
397,397,2063,12.74478147071625
398,398,2064,11.816719470748687
399,399,2065,10.88931530536571
400,400,2066,9.967893473379837
401,401,2066,8.057760639312255
402,402,2067,7.1641982447609225
403,403,2067,5.2924497894141025
404,404,2068,4.447745590985178
405,405,2069,3.6352477148030227
406,406,2070,2.8600645262212083
407,407,2070,1.1271908027361839
408,408,2071,0.44152284769377026
409,409,2072,-0.19222207930055557
410,410,2072,-1.7694632814971634
411,411,2073,-2.2857776425871763
412,412,2073,-3.736909427209766
413,413,2073,-5.118790157067739
414,414,2074,-5.427536392573458
415,415,2075,-5.659505414359149
416,416,2078,-3.81128089779187
417,417,2081,-1.8797005145224701
418,418,2083,-0.8618612767986544
419,419,2084,-0.7551186192017063
420,420,2084,-1.5571005911687177
421,421,2084,-2.265731753412445
422,422,2085,-1.879202739009747
423,423,2087,-0.39599213021908586
424,424,2091,3.185128603104931
425,425,2094,5.865053870593824
426,426,2096,7.64437851786772
427,427,2097,8.523380129735969
428,428,2097,8.502050456028412
429,429,2098,9.58009581483217
430,430,2099,10.75693323306762
431,431,2100,12.031682318037713
432,432,2102,14.403158174678383
433,433,2102,14.869838643468995
434,434,2102,15.429917840677541
435,435,2102,16.081318119936764
436,436,2102,16.82168706971172
437,437,2101,16.648400855142373
438,438,2101,17.558605846940335
439,439,2099,16.549143819084577
440,440,2095,13.616638007011218
441,441,2092,11.757473241905847
442,442,2087,7.9678141309084465
443,443,2083,5.243671873213001
444,444,2078,1.5808384002584792
445,445,2073,-2.0250240807125013
446,446,2069,-4.578394431252395
447,447,2065,-7.083898185438761
448,448,2061,-9.546275271085362
449,449,2057,-11.970379313582654
450,450,2052,-15.361176597499657
451,451,2048,-17.723675473702965
452,452,2044,-20.062951586113975
453,453,2040,-22.384087526045597
454,454,2038,-22.692160415808658
455,455,2038,-20.992245622609765
456,456,2037,-20.289415176987625
457,457,2036,-19.58870426738757
458,458,2035,-18.895099449769116
459,459,2034,-18.213463287738925
460,460,2034,-16.54849150287547
461,461,2033,-15.90470808143256
462,462,2033,-14.286497947526327
463,463,2033,-12.698256740107542
464,464,2034,-10.144454899407357
465,465,2034,-8.629701521067034
466,466,2034,-7.158611028560077
467,467,2033,-6.73571869256428
468,468,2034,-4.365285509587744
469,469,2034,-3.0511795215005417
470,470,2033,-2.7967323896349177
471,471,2033,-1.604693803567713
472,472,2033,-0.4772941263911582
473,473,2033,0.5836653961932853
474,474,2033,1.5766421432781734
475,475,2033,2.500250776251421
476,476,2033,3.3531937998873635
477,477,2034,5.134292964854032
478,478,2035,6.842551554907141
479,479,2036,8.477215574667309
480,480,2037,10.037790958339993
481,481,2036,9.524054225199238
482,482,2035,8.936094135090686
483,483,2034,8.274309739888924
484,484,2034,8.539455539976892
485,485,2034,8.732664378963987
486,486,2035,9.85537840914712
487,487,2036,10.909214434905806
488,488,2036,10.895849104715529
489,489,2036,10.816956188254673
490,490,2035,9.674175223452417
491,491,2035,9.469213415383619
492,492,2035,9.203984964532687
493,493,2035,8.880718721889469
494,494,2035,8.502081832235215
495,495,2034,7.071217424023284
496,496,2034,6.591733371041286
497,497,2034,6.067604282870885
498,498,2034,5.503050480134849
499,499,2033,3.902362117573059
500,500,2033,3.269818332324556
501,501,2033,2.609584624391899
502,502,2033,1.9258023062637109
503,503,2034,2.2226249068108506
504,504,2034,1.5042227403252588
505,505,2035,1.7748248614348534
506,506,2034,0.03864363090758349
507,507,2034,-0.7000832681210407
508,508,2033,-2.437168110197086
509,509,2034,-2.168468295554182
510,510,2035,-1.8899132824998985
511,511,2036,-1.5974939712758411
512,512,2037,-1.2872784712415188
513,513,2036,-2.9554381604089683
514,514,2034,-5.598257339818989
515,515,2033,-7.2121371568444905
516,516,2033,-7.793657571800277
517,517,2034,-7.339537289313642
518,518,2034,-7.846689196736123
519,519,2034,-8.312205890810953
520,520,2034,-8.733381780068612
521,521,2034,-9.107729087954318
522,522,2034,-9.43295572250945
523,523,2034,-9.706984940110424
524,524,2035,-8.92794743589178
525,525,2035,-9.094252607195468
526,526,2036,-8.204525644169557
527,527,2036,-8.257709090731268
528,528,2036,-8.252976714092071
529,529,2036,-8.18975837485156
530,530,2035,-9.067774473638316
531,531,2035,-8.88697326996334
532,532,2035,-8.647605887193645
533,533,2035,-8.350193646761003
534,534,2037,-5.995499753137648
535,535,2037,-5.5845800358818
536,536,2037,-5.118704763346033
537,537,2036,-5.599423475326441
538,538,2035,-6.028532758817886
539,539,2034,-6.408107135346846
540,540,2034,-5.740448946562793
541,541,2036,-3.0280959353796475
542,542,2038,-0.27380673245881226
543,543,2040,2.5194544125954383
544,544,2042,5.3485497237970385
545,545,2043,7.210142127364531
546,546,2044,9.100755528081297
547,547,2045,11.0167503523409
548,548,2045,11.954337039582228
549,549,2046,13.909632696109593
550,550,2045,13.878590235557992
551,551,2044,13.857109349567931
552,552,2043,13.840982487260252
553,553,2042,13.825931942867877
554,554,2040,12.807631308908071
555,555,2039,12.781732490921996
556,556,2036,10.743828818039177
557,557,2035,10.689546303199489
558,558,2034,10.614490975934643
559,559,2033,10.51430815817483
560,560,2034,12.384688301362484
561,561,2034,13.221367403591664
562,562,2035,15.020175248136796
563,563,2035,15.777014020324227
564,564,2036,17.4878954187583
565,565,2036,18.148924194837953
566,566,2037,19.756377198831558
567,567,2038,21.306669892361697
568,568,2037,20.79637027173943
569,569,2035,19.22224430140574
570,570,2033,17.581263452685626
571,571,2033,17.87061155885756
572,572,2039,24.08770172255055
573,573,2053,38.230187047738006
574,574,2076,61.2959651771321
575,575,2097,82.28311789240728
576,576,2107,92.1899725049376
577,577,2097,82.01513046679395
578,578,2063,47.75750042193104
579,579,2009,-6.583691079691967
580,580,1943,-73.00892717715534
581,581,1878,-138.51838126134356
582,582,1831,-186.1119412311052
583,583,1811,-206.78921878553652
584,584,1822,-196.54955438668944
585,585,1860,-159.39202316802823
586,586,1913,-107.31544729423591
587,587,1967,-54.3183880455803
588,588,2009,-13.399144258722432
589,589,2036,12.444280288712765
590,590,2048,23.214165885400153
591,591,2053,26.913107620410514
592,592,2054,26.543938517299697
593,593,2055,26.10978504307515
594,594,2056,25.61396704334728
595,595,2057,25.060030257484186
596,596,2059,25.451729993603127
597,597,2061,25.79300341203788
598,598,2061,24.08798368842481
599,599,2060,21.340997442590897
600,600,2060,19.556550843496627
601,601,2062,19.739272372153234
602,602,2065,20.89392453614842
603,603,2069,23.025372426451995
604,604,2071,23.138599842353297
605,605,2071,21.23870363298571
606,606,2069,17.330839682411977
607,607,2066,12.420222009256465
608,608,2066,10.512105593383389
609,609,2066,8.61171569087907
610,610,2067,7.724289171431311
611,611,2068,6.855035865031924
612,612,2069,6.009137250107104
613,613,2070,5.1917452236963655
614,614,2072,5.407959625690759
615,615,2073,4.662768656291847
616,616,2073,2.961091018060835
617,617,2073,1.307743616615579
618,618,2073,-0.2926171044363257
619,619,2073,-1.8355053154481262
620,620,2073,-3.3166208187375834
621,621,2073,-4.731842148234457
622,622,2074,-5.077213734331892
623,623,2076,-4.3489590921366865
624,624,2078,-3.543503964444302
625,625,2080,-2.6574987272881754
626,626,2082,-1.6878666465595167
627,627,2083,-1.6318086726022054
628,628,2085,-0.4868019957272063
629,629,2085,-1.2505870580646592
630,630,2085,-1.9211750296065713
631,631,2085,-2.4968277244298394
632,632,2086,-1.9760898569503595
633,633,2087,-1.3578096684301202
634,634,2089,0.3588893410288021
635,635,2092,3.174579075166819
636,636,2096,7.0895305596191225
637,637,2098,9.103697347453828
638,638,2099,10.216742665400801
639,639,2098,9.428019585864755
640,640,2097,8.736600194234095
641,641,2097,9.14123642973363
642,642,2098,10.640407351407971
643,643,2099,12.232271336523295
644,644,2099,12.914720569318202
645,645,2101,15.685388539461858
646,646,2101,16.54159978423044
647,647,2100,16.48047517366346
648,648,2099,16.498893967326765
649,649,2097,15.593515338795473
650,650,2095,14.760768586905474
651,651,2092,12.99685472902971
652,652,2088,10.297796843900263
653,653,2083,6.659448373912429
654,654,2079,4.077518005060955
655,655,2074,0.5475631673512669
656,656,2070,-1.9349839162322657
657,657,2065,-5.374843114955263
658,658,2060,-8.776843557127508
659,659,2055,-12.145928478333204
660,660,2049,-16.487106468953886
661,661,2045,-18.805407817114155
662,662,2041,-21.105915402999056
663,663,2038,-22.393641077254284
664,664,2037,-21.673514257789265
665,665,2037,-19.95036553482031
666,666,2037,-18.229006409028486
667,667,2037,-16.514303226795523
668,668,2035,-16.811282441920863
669,669,2032,-18.12512843713709
670,670,2030,-18.46117579191798
671,671,2029,-17.8247898698487
672,672,2030,-15.221184405161726
673,673,2030,-13.655262095794724
674,674,2031,-11.131446252333305
675,675,2031,-9.653684863945529
676,676,2030,-9.22542918609131
677,677,2030,-7.849740949123329
678,678,2030,-6.529468954707928
679,679,2031,-4.2673188395411445
680,680,2031,-3.0659549765994885
681,681,2032,-0.9279427127712553
682,682,2033,1.1442765271934605
683,683,2033,2.148451729140804
684,684,2033,3.082593048877391
685,685,2033,3.9449827943564153
686,686,2033,4.734228000026783
687,687,2033,5.449200006029253
688,688,2033,6.089037031615899
689,689,2033,6.653124428942499
690,690,2033,7.14114873039155
691,691,2034,8.553124155871412
692,692,2034,8.889423513201994
693,693,2034,9.15081865466766
694,694,2034,9.338338129656822
695,695,2033,8.453155258798494
696,696,2033,8.496496018078723
697,697,2034,9.469540491033246
698,698,2036,11.373510669064082
699,699,2038,13.209752967336373
700,700,2039,13.97987428800339
701,701,2037,11.685899575439715
702,702,2035,9.330359774293655
703,703,2033,6.916282819800218
704,704,2032,5.447151341334287
705,705,2033,5.926789394344364
706,706,2034,6.359172700094448
707,707,2036,7.748349531372581
708,708,2036,7.098323459416552
709,709,2036,6.413117097450909
710,710,2035,4.6967558522452
711,711,2035,3.9533480005802666
712,712,2034,2.1870420336179177
713,713,2035,2.402058509334343
714,714,2036,2.602620471698865
715,715,2036,1.7929796794891164
716,716,2036,0.977405479937429
717,717,2036,0.16017367529763105
718,718,2036,-0.6544445080103256
719,719,2036,-1.4622412863266199
720,720,2035,-3.2590830165124878
721,721,2035,-4.040904590677597
722,722,2036,-3.8037515938489257
723,723,2036,-4.543752765080267
724,724,2036,-5.257140122618797
725,725,2035,-6.940268762634869
726,726,2034,-8.58964139010321
727,727,2034,-9.201932176642162
728,728,2034,-9.774009988844124
729,729,2036,-8.302923602148747
730,730,2038,-6.78593965138813
731,731,2040,-5.220510498875161
732,732,2040,-5.604337343375474
733,733,2038,-7.935315195249634
734,734,2037,-9.21157821668783
735,735,2036,-10.43151214319097
736,736,2036,-10.593728507904961
737,737,2037,-9.697107371850791
738,738,2038,-8.740812462076741
739,739,2039,-7.724262687947098
740,740,2039,-7.6471666060883265
741,741,2039,-7.509486326144364
742,742,2039,-7.31143250834843
743,743,2038,-8.05348506676711
744,744,2039,-6.736364961067269
745,745,2039,-6.361117189346249
746,746,2039,-5.929032708993338
747,747,2039,-5.441649389391971
748,748,2039,-4.90075198882843
749,749,2038,-5.308371173892947
750,750,2037,-5.66673889934895
751,751,2036,-5.978328236831348
752,752,2037,-4.245807117207053
753,753,2039,-1.4720659746214095
754,754,2041,1.339819464635231
755,755,2044,5.18662071249997
756,756,2046,8.064920205166368
757,757,2046,8.971134429522081
758,758,2046,9.90154848765533
759,759,2046,10.85230319141002
760,760,2046,11.81942001509456
761,761,2047,13.798821109227775
762,762,2048,15.786317762521353
763,763,2048,16.77765793876075
764,764,2046,15.768531399273565
765,765,2044,14.75461239696166
766,766,2041,12.731511871921608
767,767,2038,10.694841842401388
768,768,2036,9.640199868590656
769,769,2035,9.563201409515221
770,770,2035,10.459480142793401
771,771,2035,11.32469901532799
772,772,2036,13.154625155831098
773,773,2037,14.945113896273984
774,774,2037,15.692124491074892
775,775,2038,17.391762153381023
776,776,2038,18.040234303430687
777,777,2038,18.633902319517517
778,778,2039,20.169300789029492
779,779,2038,19.643129593861183
780,780,2037,19.052304088939906
781,781,2036,18.393940609747027
782,782,2039,21.665378727190458
783,783,2048,30.864160032482708
784,784,2068,50.988096799245156
785,785,2091,74.03517442204586
786,786,2108,91.0036343239865
787,787,2108,90.89198669471809
788,788,2084,66.69901689945164
789,789,2037,19.42382303740978
790,790,1974,-43.934200780151386
791,791,1909,-109.3753447678858
792,792,1856,-162.8996074581466
793,793,1825,-194.5067367972119
794,794,1822,-198.19619745659577
795,795,1846,-174.96721916744025
796,796,1890,-131.81878204266658
797,797,1942,-80.74961359323386
798,798,1989,-34.75817080135591
799,799,2024,-0.8425963994973755
800,800,2043,16.99921717053843
801,801,2052,24.769701491211585
802,802,2056,27.47154635709025
803,803,2058,28.10766505563993
804,804,2060,28.68123344255245
805,805,2061,28.195637571253652
806,806,2063,28.654505767155328
807,807,2064,28.0616172094309
808,808,2064,26.420943094225898
809,809,2064,24.736617761565835
810,810,2064,23.012957234459837
811,811,2064,21.254450537030607
812,812,2065,20.465729164603033
813,813,2065,18.65154133690143
814,814,2065,16.816736543369878
815,815,2065,14.9662390471866
816,816,2067,15.105058269000907
817,817,2068,14.238245475077427
818,818,2068,12.370919606711901
819,819,2068,10.508207627659772
820,820,2067,7.655232826675717
821,821,2067,5.817135121806413
822,822,2068,4.999016690224565
823,823,2071,6.205940975282847
824,824,2073,6.442889155109219
825,825,2075,6.71479677880159
826,826,2074,4.026462634312535
827,827,2073,1.3826179655881576
828,828,2072,-1.2121585943418864
829,829,2071,-3.7534189106005122
830,830,2072,-4.236870835498269
831,831,2073,-4.658424494213447
832,832,2074,-5.01415263165015
833,833,2076,-4.3003304152744
834,834,2078,-3.5134531848018145
835,835,2080,-2.650189451943814
836,836,2082,-1.707439724687243
837,837,2084,-0.6823572449290545
838,838,2084,-1.5723679834426902
839,839,2085,-1.3751524383058866
840,840,2086,-1.0886905879305457
841,841,2087,-0.7112098233627009
842,842,2087,-1.241179944294867
843,843,2088,-0.6773392477208073
844,844,2089,-0.018719625688429886
845,845,2091,1.7353666602202207
846,846,2093,3.5852931990444805
847,847,2095,5.5311453458558315
848,848,2097,7.572704412322192
849,849,2098,8.709443585060562
850,850,2099,9.940546133676392
851,851,2099,10.264887365409287
852,852,2099,10.681071026583382
853,853,2100,12.187423894558375
854,854,2101,13.782002015246071
855,855,2101,14.462587226785516
856,856,2101,15.2267164857815
857,857,2101,16.071664136729336
858,858,2100,15.994472997054206
859,859,2098,14.991975494778481
860,860,2096,14.060794325278621
861,861,2093,12.197349014129266
862,862,2089,9.397863192133396
863,863,2085,6.658377851786826
864,864,2081,3.9747545455351987
865,865,2077,1.3427165449669367
866,866,2073,-1.242125424080805
867,867,2067,-5.784257652073969
868,868,2062,-9.288242388546688
869,869,2057,-12.758771112577461
870,870,2053,-15.200616157561551
871,871,2050,-16.618630239392058
872,872,2048,-17.017681877990196
873,873,2047,-16.4025962509326
874,874,2045,-16.7781176557698
875,875,2042,-18.148872284857312
876,876,2040,-18.519480291927167
877,877,2039,-17.894645918637213
878,878,2038,-17.279241615527223
879,879,2037,-16.678322252547524
880,880,2036,-16.097059133806802
881,881,2034,-16.540653081936746
882,882,2033,-16.014125728328928
883,883,2033,-14.522171062641238
884,884,2035,-11.069019501191525
885,885,2037,-7.658394169542034
886,886,2039,-4.293548517782995
887,887,2039,-2.97739530084342
888,888,2038,-2.7126302889074605
889,889,2036,-3.5018717720596477
890,890,2035,-3.347677376824665
891,891,2034,-3.252550618209139
892,892,2035,-1.2188042271612525
893,893,2035,-0.2485632607446454
894,894,2036,1.656315960638256
895,895,2036,2.494235196274082
896,896,2037,4.263922816649736
897,897,2037,4.9644801838782
898,898,2038,6.595352217116804
899,899,2038,7.156179116138134
900,900,2037,6.646721216595111
901,901,2037,7.066771617763909
902,902,2036,6.416110397330872
903,903,2037,7.694623880515589
904,904,2038,8.902376017052067
905,905,2039,10.039770673316378
906,906,2040,11.107687317231177
907,907,2040,11.107536106045774
908,908,2039,10.041274396271296
909,909,2038,8.911389460872003
910,910,2037,7.720708516230259
911,911,2036,6.472244120415089
912,912,2036,6.169080665062351
913,913,2036,5.814313324290081
914,914,2036,5.411061238942678
915,915,2038,6.9625766927000186
916,916,2040,8.47219960344299
917,917,2041,8.943402467163562
918,918,2041,8.379797598772157
919,919,2039,5.7851119125036945
920,920,2037,3.1631718987056083
921,921,2035,0.5178722330188541
922,922,2035,-0.14682921017293094
923,923,2036,0.17306740347056326
924,924,2038,1.4816091300166159
925,925,2039,1.782858118915259
926,926,2039,1.0808754360665884
927,927,2038,-0.6202951241531607
928,928,2038,-1.3166430660322925
929,929,2037,-3.004207080911897
930,930,2037,-3.6790907074665973
931,931,2038,-3.33747769500516
932,932,2038,-3.975679190474912
933,933,2038,-4.59008993384418
934,934,2038,-5.177234638861369
935,935,2038,-5.733755197986163
936,936,2038,-6.256445456322826
937,937,2038,-6.742232052433881
938,938,2038,-7.1882505554617335
939,939,2038,-7.591846257393296
940,940,2037,-8.950622263715854
941,941,2038,-8.2623480114056
942,942,2037,-9.525016289061952
943,943,2037,-9.736766133523233
944,944,2037,-9.89598095767781
945,945,2037,-10.001300532233032
946,946,2038,-9.051616241439179
947,947,2039,-8.046134734002768
948,948,2041,-5.984328350926117
949,949,2041,-5.865937809444214
950,950,2040,-6.690931127087837
951,951,2039,-7.459504187994957
952,952,2038,-8.172139123065051
953,953,2037,-8.829587074754354
954,954,2038,-7.432855240683908
955,955,2039,-5.983214328101901
956,956,2040,-4.482183694984859
957,957,2040,-3.9315315615259903
958,958,2039,-4.333268931573954
959,959,2038,-4.6896211407582395
960,960,2038,-4.003025186743536
961,961,2038,-3.2761528696327535
962,962,2039,-1.5118478562024142
963,963,2042,2.286831264941104
964,964,2045,6.116627384662987
965,965,2047,8.974128644821736
966,966,2048,10.855780910753532
967,967,2048,11.757895671526912
968,968,2049,13.676674585179462
969,969,2048,13.608133184011775
970,970,2048,14.548206474298835
971,971,2047,14.492716239481894
972,972,2046,14.437429301406699
973,973,2045,14.378073417777818
974,974,2042,12.31030549466914
975,975,2040,11.229786697921222
976,976,2038,10.132151104295833
977,977,2038,11.013049225362366
978,978,2039,12.868143410677348
979,979,2040,14.693140517256417
980,980,2041,16.483824504467375
981,981,2041,17.236040884509066
982,982,2040,16.945744956501997
983,983,2039,16.60902843583658
984,984,2038,16.22209244409406
985,985,2039,17.78130006652391
986,986,2040,19.283148392647114
987,987,2040,19.72429864476017
988,988,2039,19.10161111031272
989,989,2040,20.412158144875182
990,990,2046,26.6532204594354
991,991,2060,40.8223093903469
992,992,2083,63.91718841522811
993,993,2105,85.93579248148177
994,994,2117,97.87631181125806
995,995,2107,87.73717877894401
996,996,2071,51.517101862787065
997,997,2015,-4.78487468539662
998,998,1949,-71.16939748850824
999,999,1886,-134.63680503419454
1000,1000,1842,-179.18712429052496
1001,1001,1824,-197.8201536332688
1002,1002,1834,-188.53545066944338
1003,1003,1869,-154.33231044451063
1004,1004,1918,-106.20977146926398
1005,1005,1967,-58.16660153879898
1006,1006,2007,-19.2012367094169
1007,1007,2033,5.6881880561505955
1008,1008,2046,17.503844547824787
1009,1009,2051,21.248162666477945
1010,1010,2055,23.92385560396808
1011,1011,2057,24.53383738069158
1012,1012,2059,25.081304762021077
1013,1013,2060,24.56966355949102
1014,1014,2060,23.00257132549998
1015,1015,2060,21.383893777516466
1016,1016,2060,19.71768187087921
1017,1017,2062,20.008185505551303
1018,1018,2063,19.259781082867278
1019,1019,2064,18.477037141219427
1020,1020,2065,17.664651398783814
1021,1021,2065,15.827445954866521
1022,1022,2067,15.97039935743013
1023,1023,2068,15.098587469237756
1024,1024,2069,14.217187985984419
1025,1025,2070,13.331415169849489
1026,1026,2071,12.446507620513078
1027,1027,2072,11.567710551789858
1028,1028,2073,10.700289926285459
1029,1029,2073,8.849509278227163
1030,1030,2074,8.020643805400665
1031,1031,2073,5.218919836628367
1032,1032,2073,3.4495130756822174
1033,1033,2073,1.7174884051835786
1034,1034,2074,1.027804123988421
1035,1035,2076,1.3853110401320796
1036,1036,2077,0.7947198597463521
1037,1037,2077,-0.7393829932069287
1038,1038,2076,-3.2125617903739925
1039,1039,2075,-5.620552009091968
1040,1040,2076,-5.959285571911842
1041,1041,2078,-5.224915346591352
1042,1042,2082,-2.41380155722826
1043,1043,2085,-0.5225561870103954
1044,1044,2086,-0.5480331963520886
1045,1045,2086,-1.487296601422277
1046,1046,2086,-2.3376837077575585
1047,1047,2086,-3.0968301158533182
1048,1048,2086,-3.7626404117453345
1049,1049,2088,-2.333305844339434
1050,1050,2090,-0.8073423227701149
1051,1051,2092,0.8164473453790704
1052,1052,2094,2.538980287043592
1053,1053,2097,5.3608960199558675
1054,1054,2100,8.2825492280043
1055,1055,2101,9.303960907918384
1056,1056,2102,10.424877209039662
1057,1057,2103,11.64470674488653
1058,1058,2104,12.962512391718372
1059,1059,2105,14.377068243665128
1060,1060,2105,14.886848282167998
1061,1061,2105,15.490058740455297
1062,1062,2105,16.18462875328793
1063,1063,2105,16.968212609626505
1064,1064,2105,17.83819839861492
1065,1065,2104,17.791680292733588
1066,1066,2103,17.825517029379373
1067,1067,2101,16.936300552524557
1068,1068,2097,14.120400164861238
1069,1069,2092,10.374007445572902
1070,1070,2086,5.693123147844095
1071,1071,2081,2.073598075721563
1072,1072,2077,-0.488873361201823
1073,1073,2073,-2.99875380035554
1074,1074,2070,-4.460631150580655
1075,1075,2066,-6.87922890265774
1076,1076,2061,-10.259362783746091
1077,1077,2056,-13.605950492083982
1078,1078,2052,-15.923978405640243
1079,1079,2048,-18.21849482648408
1080,1080,2045,-19.49460304192698
1081,1081,2043,-19.757438243168927
1082,1082,2040,-21.012144450736344
1083,1083,2039,-20.26378764402754
1084,1084,2037,-20.51735461136024
1085,1085,2036,-19.777613599635696
1086,1086,2036,-18.049231348214892
1087,1087,2035,-17.336863311292053
1088,1088,2035,-15.645222112314586
1089,1089,2034,-14.97918816439412
1090,1090,2034,-13.343749468836618
1091,1091,2034,-11.743915041449199
1092,1092,2033,-11.184543980879027
1093,1093,2034,-8.670149493319826
1094,1094,2034,-7.204832711112952
1095,1095,2035,-4.792159642314043
1096,1096,2035,-3.4352210662135207
1097,1097,2035,-2.136661508911458
1098,1098,2036,0.10119525059167606
1099,1099,2035,0.276225985558053
1100,1100,2034,0.38652120155637243
1101,1101,2034,1.4303393717939819
1102,1102,2033,1.4061455985073696
1103,1103,2034,3.3126058962790537
1104,1104,2036,6.148446223343998
1105,1105,2038,8.912400587215215
1106,1106,2039,10.6032116075655
1107,1107,2038,10.219705375296998
1108,1108,2036,8.760951706568216
1109,1109,2034,7.226381853939962
1110,1110,2034,7.615964610261583
1111,1111,2034,7.930264370395767
1112,1112,2035,9.170455113571082
1113,1113,2036,10.338225748249641
1114,1114,2037,11.435608611048739
1115,1115,2037,11.464843248301973
1116,1116,2037,11.428275869474705
1117,1117,2037,11.328332326156636
1118,1118,2036,10.167506597593478
1119,1119,2035,8.948439856363235
1120,1120,2035,8.673929861760985
1121,1121,2035,8.346918518254135
1122,1122,2035,7.9705482764811215
1123,1123,2035,7.548143237751276
1124,1124,2035,7.083205594096706
1125,1125,2034,5.579374258540332
1126,1126,2033,4.040404338402678
1127,1127,2032,2.4701142095972237
1128,1128,2032,1.8724016235954277
1129,1129,2031,0.25121676660586223
1130,1130,2030,-1.3894435945759653
1131,1131,2029,-3.0455315253009796
1132,1132,2027,-5.7129753522419495
1133,1133,2025,-8.387680377831723
1134,1134,2025,-9.06555099612967
1135,1135,2027,-7.742534104500598
1136,1136,2028,-7.414651689711689
1137,1137,2029,-7.077969171752796
1138,1138,2028,-8.728648771017905
1139,1139,2026,-11.36296513896778
1140,1140,2025,-12.977267189067806
1141,1141,2026,-12.568046229692296
1142,1142,2027,-12.131928875861728
1143,1143,2029,-10.66570135904503
1144,1144,2031,-9.166317305765483
1145,1145,2033,-7.6309155345201
1146,1146,2035,-6.056826485781977
1147,1147,2036,-5.441567107886833
1148,1148,2037,-4.782856213553748
1149,1149,2036,-6.078639701157377
1150,1150,2036,-6.327066816729366
1151,1151,2036,-6.5265669455197175
1152,1152,2036,-6.675829475466843
1153,1153,2037,-5.773798614320528
1154,1154,2038,-4.819661863777167
1155,1155,2038,-4.812853430480423
1156,1156,2039,-3.753051223428829
1157,1157,2039,-3.6402155273061974
1158,1158,2040,-2.474546689168447
1159,1159,2041,-1.2565324006353888
1160,1160,2041,-0.986940573209802
1161,1161,2041,-0.666773815944727
1162,1162,2039,-2.2973135281152333
1163,1163,2037,-3.880077621691594
1164,1164,2035,-5.416835946745077
1165,1165,2036,-3.909576767615671
1166,1166,2039,-0.36053630422175154
1167,1167,2042,3.227815286793552
1168,1168,2045,6.852788906991149
1169,1169,2047,9.511503048094092
1170,1170,2047,10.200889723419245
1171,1171,2047,10.917711761727443
1172,1172,2047,11.65857012218489
1173,1173,2048,13.419933278727346
1174,1174,2049,15.198145897695031
1175,1175,2049,15.989411431425587
1176,1176,2049,16.789828617257808
1177,1177,2048,16.595396374006917
1178,1178,2046,15.40204566126047
1179,1179,2044,14.205655738902127
1180,1180,2041,12.002044065573193
1181,1181,2040,11.787015059962227
1182,1182,2039,11.556329082520218
1183,1183,2039,12.305772825205327
1184,1184,2041,15.031181664502482
1185,1185,2042,16.728424559921798
1186,1186,2043,18.393474221892568
1187,1187,2043,19.022370491783143
1188,1188,2043,19.611247514495147
1189,1189,2042,19.156339342424406
1190,1190,2041,18.65399573996504
1191,1191,2041,19.100729494105188
1192,1192,2042,20.493204539245017
1193,1193,2042,20.828266107526048
1194,1194,2044,23.102970317324548
1195,1195,2050,29.314586475041423
1196,1196,2067,46.46060927684428
1197,1197,2089,68.53869552456544
1198,1198,2108,87.54671204931493
1199,1199,2113,92.48276144380284
1200,1200,2094,73.34519089728575
1201,1201,2049,28.13263752053345
1202,1202,1986,-35.15593268875011
1203,1203,1917,-104.52126152349615
1204,1204,1857,-164.96377763831865
1205,1205,1820,-202.4836354288785
1206,1206,1812,-211.080760270891
1207,1207,1833,-190.75482547163637
1208,1208,1878,-146.50527828544278
1209,1209,1934,-91.33132423407382
1210,1210,1986,-40.231885757027584
1211,1211,2025,-2.20556199368715
1212,1212,2048,19.749356967025285
1213,1213,2056,26.634885361130706
1214,1214,2059,28.453341270268297
1215,1215,2059,27.207238410729765
1216,1216,2059,25.899379631572938
1217,1217,2060,25.532810828003434
1218,1218,2062,26.11079529886989
1219,1219,2063,25.636797875688806
1220,1220,2064,25.114489581921305
1221,1221,2064,23.54774081837486
1222,1222,2064,21.940597632940722
1223,1223,2064,20.297305195006686
1224,1224,2065,19.62228258993701
1225,1225,2065,17.92007558770251
1226,1226,2065,16.195372953280028
1227,1227,2065,14.452958345833308
1228,1228,2066,13.697704419988284
1229,1229,2067,12.934561142504664
1230,1230,2069,13.168549147854966
1231,1231,2069,11.404710118660363
1232,1232,2069,9.648136843732233
1233,1233,2069,7.903917944193049
1234,1234,2070,7.177125255954655
1235,1235,2070,5.472806555845954
1236,1236,2072,5.7959890531219145
1237,1237,2073,5.151592231562688
1238,1238,2073,3.5444689359253436
1239,1239,2070,-1.0206599677961656
1240,1240,2069,-3.539142514867092
1241,1241,2070,-4.006497405654342
1242,1242,2074,-1.4183446542348044
1243,1243,2079,2.2294936079410705
1244,1244,2083,4.9410262337879995
1245,1245,2084,4.720057362149831
1246,1246,2082,1.5701941345708477
1247,1247,2079,-2.5051662032925464
1248,1248,2077,-5.502848369527545
1249,1249,2077,-6.419926280997687
1250,1250,2080,-4.253727961515461
1251,1251,2082,-3.001892783763063
1252,1252,2084,-1.6623158816540076
1253,1253,2086,-0.23316619729357235
1254,1254,2088,1.2871018577779987
1255,1255,2090,2.899764335174206
1256,1256,2091,3.6058074169468224
1257,1257,2092,4.405929550854473
1258,1258,2094,6.300518006833947
1259,1259,2097,9.289631888466262
1260,1260,2100,12.373023577773116
1261,1261,2103,15.550150552822206
1262,1262,2104,16.820161631050965
1263,1263,2104,17.181948371988966
1264,1264,2103,16.634128106342377
1265,1265,2102,16.175049357485875
1266,1266,2102,16.80276101899282
1267,1267,2103,18.515046634069833
1268,1268,2102,18.30939031956249
1269,1269,2101,18.183050158408797
1270,1270,2099,17.13299387247555
1271,1271,2096,15.155963417811712
1272,1272,2093,13.248476415855897
1273,1273,2089,10.406833780252988
1274,1274,2084,6.6271814769917405
1275,1275,2080,3.905487694713605
1276,1276,2076,1.2375524903705433
1277,1277,2071,-2.380971443203322
1278,1278,2066,-5.954541582254353
1279,1279,2061,-9.487725322410855
1280,1280,2056,-12.985199284757048
1281,1281,2051,-16.451710891276004
1282,1282,2048,-17.892060921545827
1283,1283,2045,-19.3111499530494
1284,1284,2043,-19.71388066514055
1285,1285,2041,-20.10518810059062
1286,1286,2038,-21.489979370238693
1287,1287,2036,-21.873142823616163
1288,1288,2034,-22.2595519087037
1289,1289,2032,-22.65402643626279
1290,1290,2031,-22.06129425260324
1291,1291,2032,-19.48591609735658
1292,1292,2033,-16.932275173565266
1293,1293,2034,-14.404514189391438
1294,1294,2035,-11.906638073939586
1295,1295,2034,-11.442627329512803
1296,1296,2033,-11.016497702417093
1297,1297,2032,-10.63238089028621
1298,1298,2031,-10.294413536152323
1299,1299,2031,-9.006632518066146
1300,1300,2031,-7.772829053427749
1301,1301,2032,-5.596346067361199
1302,1302,2033,-3.480037720388208
1303,1303,2035,-0.42618797672491326
1304,1304,2036,1.563436099188774
1305,1305,2037,3.487567593663446
1306,1306,2038,5.345273355390692
1307,1307,2038,6.1358726180301435
1308,1308,2037,5.858812210052856
1309,1309,2037,6.5135457288060765
1310,1310,2037,7.099475197980797
1311,1311,2038,8.61599803493051
1312,1312,2039,10.062548025321956
1313,1313,2040,11.438705481747888
1314,1314,2040,11.744355412029446
1315,1315,2040,11.97982967566582
1316,1316,2040,12.146027285255188
1317,1317,2038,10.244437655997052
1318,1318,2037,9.277119379407612
1319,1319,2035,7.246500935568206
1320,1320,2034,6.155270068755773
1321,1321,2034,6.0062132974567515
1322,1322,2036,7.80215560132446
1323,1323,2039,10.545984774013485
1324,1324,2040,11.240659531796194
1325,1325,2040,10.889302905840857
1326,1326,2038,8.495188657636325
1327,1327,2036,6.061753879520458
1328,1328,2035,4.592563033093174
1329,1329,2034,3.091287493281655
1330,1330,2035,3.561706031900715
1331,1331,2034,2.0076408216898667
1332,1332,2034,1.4330105702516938
1333,1333,2034,0.8417767984317344
1334,1334,2034,0.23795385952117165
1335,1335,2034,-0.3744024928182248
1336,1336,2034,-0.9912120015667965
1337,1337,2034,-1.6084187925184388
1338,1338,2034,-2.2220402378505058
1339,1339,2033,-3.828167651031497
1340,1340,2033,-4.42295069294321
1341,1341,2033,-5.002602878023467
1342,1342,2033,-5.563417450031182
1343,1343,2033,-6.101745507067239
1344,1344,2034,-5.614069671986323
1345,1345,2035,-5.097055915070182
1346,1346,2034,-6.547540756676185
1347,1347,2034,-6.962501855795843
1348,1348,2033,-8.339134671825347
1349,1349,2032,-9.674800342033343
1350,1350,2031,-10.967058220388457
1351,1351,2032,-10.213660285963273
1352,1352,2033,-9.412613983382418
1353,1353,2036,-6.562126820331027
1354,1354,2037,-5.660667405759957
1355,1355,2038,-4.706918901618063
1356,1356,2038,-4.699843372138339
1357,1357,2036,-6.638659773233684
1358,1358,2035,-7.522837056725382
1359,1359,2034,-8.352139602326599
1360,1360,2034,-8.126586204716093
1361,1361,2034,-7.846471906966654
1362,1362,2034,-7.512351438997228
1363,1363,2035,-6.1250269773523165
1364,1364,2035,-5.685588239864071
1365,1365,2035,-5.19536622364139
1366,1366,2034,-5.6559444517192565
1367,1367,2033,-6.069142550959931
1368,1368,2033,-5.437009522522738
1369,1369,2033,-4.761880051578185
1370,1370,2034,-3.04633395775239
1371,1371,2037,0.7068133126938996
1372,1372,2039,3.494510362618109
1373,1373,2041,6.313566404081829
1374,1374,2044,10.16060999401904
1375,1375,2046,13.032117824215925
1376,1376,2047,14.924412207767734
1377,1377,2048,16.833659177446275
1378,1378,2048,17.755877802039375
1379,1379,2047,17.686992690711687
1380,1380,2045,16.622822963112398
1381,1381,2043,15.559103582121129
1382,1382,2040,13.491517753506425
1383,1383,2038,12.415687018400249
1384,1384,2038,13.327220194628243
1385,1385,2039,15.221682514101083
1386,1386,2040,17.09465558764684
1387,1387,2041,18.941770726912942
1388,1388,2041,19.758683612429323
1389,1389,2039,18.54111817277582
1390,1390,2038,18.284872934750915
1391,1391,2037,17.985816461705365
1392,1392,2037,18.63995725508405
1393,1393,2038,20.243422744960473
1394,1394,2039,21.7924856832286
1395,1395,2039,22.28357405145278
1396,1396,2038,21.713312534412424
1397,1397,2037,21.07851537632456
1398,1398,2039,23.376205254406795
1399,1399,2047,31.603636708590294
1400,1400,2063,47.758249509622416
1401,1401,2085,69.83768523495057
1402,1402,2103,87.83979762219757
1403,1403,2105,89.76268348184286
1404,1404,2082,66.60475001111283
1405,1405,2035,19.364749036340797
1406,1406,1969,-46.9582590449681
1407,1407,1900,-116.36490503488407
1408,1408,1840,-176.85557567895304
1409,1409,1804,-213.43036199739427
1410,1410,1800,-218.08909941751935
1411,1411,1826,-192.8313610898672
1412,1412,1875,-144.65646301094995
1413,1413,1932,-88.56344883800729
1414,1414,1985,-36.55105443620413
1415,1415,2024,1.3822838046910089
1416,1416,2047,23.23845698765886
1417,1417,2057,32.01966265285835
1418,1418,2061,34.7283825723594
1419,1419,2061,33.3673275634767
1420,1420,2059,29.93945600043076
1421,1421,2058,27.447991292467332
1422,1422,2058,25.89637977575156
1423,1423,2059,25.28830643959338
1424,1424,2062,26.627688472458104
1425,1425,2064,26.91861456394414
1426,1426,2066,27.165363426878727
1427,1427,2067,26.372389681330194
1428,1428,2068,25.544309034694276
1429,1429,2067,22.685898834465696
1430,1430,2066,19.80208746948957
1431,1431,2066,17.89788981188215
1432,1432,2067,16.978411510116267
1433,1433,2068,16.048799620513357
1434,1434,2069,15.114278331848038
1435,1435,2069,13.180131055363853
1436,1436,2069,11.251708887681325
1437,1437,2069,9.334353677753327
1438,1438,2068,6.433390418908611
1439,1439,2069,5.554103676164172
1440,1440,2069,3.701687499060728
1441,1441,2071,3.8813234878722813
1442,1442,2072,3.098109615933758
1443,1443,2073,2.357063972638166
1444,1444,2073,0.663086159697567
1445,1445,2072,-1.9790649390796073
1446,1446,2073,-2.5647662025185465
1447,1447,2074,-3.089588753432083
1448,1448,2076,-2.5492918270756277
1449,1449,2079,-0.9398266095458467
1450,1450,2080,-1.2573926366924506
1451,1451,2080,-2.4983707850662276
1452,1452,2079,-4.659394266939147
1453,1453,2079,-5.737322735383952
1454,1454,2080,-5.72927419147284
1455,1455,2082,-4.632656079722711
1456,1456,2084,-3.4451579621955357
1457,1457,2086,-2.1647378271659052
1458,1458,2088,-0.7896661275415102
1459,1459,2089,-0.31849405696875177
1460,1460,2091,1.2499525845193213
1461,1461,2093,2.9165166115337033
1462,1462,2095,4.681739081644155
1463,1463,2097,6.545831395776474
1464,1464,2099,8.508696528877683
1465,1465,2101,10.569919264841534
1466,1466,2102,11.728794725317155
1467,1467,2103,12.984347256702364
1468,1468,2104,14.335307860903466
1469,1469,2105,15.780114073479163
1470,1470,2104,15.316894878813601
1471,1471,2103,14.943510105277163
1472,1472,2102,14.657537444586318
1473,1473,2102,15.456297663584367
1474,1474,2101,15.336843324113172
1475,1475,2100,15.296012424482244
1476,1476,2098,14.330370901227933
1477,1477,2095,12.436273268815377
1478,1478,2092,10.609876119645262
1479,1479,2088,7.847125689085947
1480,1480,2083,4.143810043343762
1481,1481,2078,0.4955638759820249
1482,1482,2072,-4.102110286357533
1483,1483,2067,-7.653809802274983
1484,1484,2061,-12.164263257299961
1485,1485,2057,-14.638254927319094
1486,1486,2053,-17.080692912432987
1487,1487,2050,-18.49652757089413
1488,1488,2048,-18.890776463693932
1489,1489,2045,-20.268490514142307
1490,1490,2043,-20.63472545935159
1491,1491,2041,-20.994518598938264
1492,1492,2039,-21.3528710700699
1493,1493,2038,-20.71470905321723
1494,1494,2038,-19.084909137556533
1495,1495,2038,-17.468270789076524
1496,1496,2038,-15.86944670308398
1497,1497,2038,-14.292857927955358
1498,1498,2038,-12.742721629412971
1499,1499,2038,-11.223143023153616
1500,1500,2038,-9.738207199154415
1501,1501,2038,-8.292081238716383
1502,1502,2039,-5.889025534383605
1503,1503,2040,-3.5332988879817173
1504,1504,2041,-1.2290007116559378
1505,1505,2041,0.020111811948762492
1506,1506,2041,1.2107670880064312
1507,1507,2039,0.3402349935961801
1508,1508,2038,0.4063757517468145
1509,1509,2038,1.4075594629500652
1510,1510,2039,3.342568926735659
1511,1511,2040,5.2105131513714635
1512,1512,2041,7.010703374635218
1513,1513,2041,7.742538887117203
1514,1514,2039,6.405418293450833
1515,1515,2038,5.998761125666936
1516,1516,2038,6.52192661217912
1517,1517,2038,6.974329171455257
1518,1518,2038,7.355553710433501
1519,1519,2038,7.6655296381575475
1520,1520,2039,8.904672952397846
1521,1521,2038,8.073953115011253
1522,1522,2038,8.174974810548013
1523,1523,2038,8.209844622565457
1524,1524,2037,7.181035473593454
1525,1525,2037,7.091254227231101
1526,1526,2037,6.943280994977492
1527,1527,2037,6.739924703889874
1528,1528,2037,6.484058137978811
1529,1529,2038,7.178695552661091
1530,1530,2038,6.826968698393051
1531,1531,2037,5.432203849350871
1532,1532,2037,4.9978544007765695
1533,1533,2036,3.52750768114253
1534,1534,2037,4.024885868378326
1535,1535,2038,4.493809052337121
1536,1536,2038,3.938179322084856
1537,1537,2038,3.3620017995434375
1538,1538,2036,0.7693093967286737
1539,1539,2035,-0.8358111506696615
1540,1540,2034,-2.4493159873295722
1541,1541,2035,-2.0671196061521107
1542,1542,2036,-1.6851491529661409
1543,1543,2037,-1.2993187291034305
1544,1544,2037,-1.9055728845721756
1545,1545,2037,-2.4999191319331238
1546,1546,2036,-4.078486746037975
1547,1547,2036,-4.637515770582017
1548,1548,2035,-6.173388332833317
1549,1549,2036,-5.682574288767906
1550,1550,2036,-6.161704542136774
1551,1551,2035,-7.60752658625295
1552,1552,2035,-8.01695532940638
1553,1553,2035,-8.38709107886137
1554,1554,2035,-8.715210152277123
1555,1555,2036,-7.998776089629662
1556,1556,2037,-7.2354660886350715
1557,1557,2038,-6.423207339845124
1558,1558,2038,-6.560175184604538
1559,1559,2038,-6.644785067716022
1560,1560,2037,-7.675688842339736
1561,1561,2036,-8.651780684466743
1562,1562,2036,-8.572201996476064
1563,1563,2036,-8.43637720466876
1564,1564,2037,-7.243984480065299
1565,1565,2037,-6.994994829164366
1566,1566,2039,-4.689619520289275
1567,1567,2040,-3.328357885411682
1568,1568,2040,-2.9119481109921312
1569,1569,2039,-3.441423600717747
1570,1570,2037,-4.918077560515028
1571,1571,2035,-6.343474579667355
1572,1572,2033,-7.719423744298482
1573,1573,2034,-6.047961434042012
1574,1574,2036,-3.331397239102701
1575,1575,2038,-0.57227354340632
1576,1576,2040,2.2266543682091244
1577,1577,2041,4.062407006665963
1578,1578,2042,5.931796971840814
1579,1579,2042,6.831472862627862
1580,1580,2043,8.757937273927853
1581,1581,2045,11.707522688753915
1582,1582,2045,12.676389289296777
1583,1583,2046,14.660587218492537
1584,1584,2046,15.655991328780395
1585,1585,2046,16.658412658617813
1586,1586,2044,15.663571786391111
1587,1587,2042,14.667152654581617
1588,1588,2040,13.664797969919382
1589,1589,2037,11.652067261494096
1590,1590,2036,11.624512482671895
1591,1591,2035,11.577636427603926
1592,1592,2035,12.50700591322631
1593,1593,2036,14.408226420099655
1594,1594,2036,15.276943346488633
1595,1595,2037,17.108891097524683
1596,1596,2037,17.899867440205856
1597,1597,2038,19.645782245968398
1598,1598,2038,20.34265246465083
1599,1599,2038,20.986644750534847
1600,1600,2038,21.574080220610618
1601,1601,2036,20.101433363373566
1602,1602,2035,19.565405085587596
1603,1603,2035,19.962872434458447
1604,1604,2042,27.290970986076175
1605,1605,2056,41.547021871699975
1606,1606,2078,63.72859141236136
1607,1607,2100,85.83342714070793
1608,1608,2109,94.85948899398859
1609,1609,2097,82.805001010701
1610,1610,2059,44.66848070864883
1611,1611,2002,-12.551205799519433
1612,1612,1933,-81.85489102480126
1613,1613,1869,-146.24309044915782
1614,1614,1822,-193.71604654591448
1615,1615,1804,-212.27372039938
1616,1616,1818,-198.91582709491527
1617,1617,1857,-160.6418188115107
1618,1618,1911,-107.45090097050375
1619,1619,1965,-54.34200154991512
1620,1620,2008,-12.313757502354859
1621,1621,2035,13.63551373551803
1622,1622,2048,25.507804239356954
1623,1623,2052,28.30544194608883
1624,1624,2053,28.031041324587534
1625,1625,2054,27.68746382117615
1626,1626,2055,27.27780943429871
1627,1627,2056,26.805401946179828
1628,1628,2057,26.27378916173228
1629,1629,2058,25.6867421478695
1630,1630,2057,23.048232338880766
1631,1631,2057,21.362466483700857
1632,1632,2057,19.633792895793025
1633,1633,2058,18.866761811252093
1634,1634,2060,19.066073001565805
1635,1635,2063,20.23657615875235
1636,1636,2066,21.383228032791436
1637,1637,2066,19.511081070219337
1638,1638,2065,16.625292986875774
1639,1639,2063,12.731093356509838
1640,1640,2062,9.83376598573366
1641,1641,2061,6.938614962117934
1642,1642,2063,7.050994556160067
1643,1643,2065,7.176237772756833
1644,1644,2066,6.319659476026896
1645,1645,2067,5.486548786315631
1646,1646,2068,4.682134955577768
1647,1647,2068,2.911558935102073
1648,1648,2069,2.179898495581864
1649,1649,2069,0.49211362733941977
1650,1650,2070,-0.1469490259004398
1651,1651,2070,-1.732604747724376
1652,1652,2071,-2.260304262039014
1653,1653,2072,-2.7256867109717526
1654,1654,2073,-3.124551952818895
1655,1655,2075,-2.4529174871345143
1656,1656,2077,-1.7070051805097575
1657,1657,2078,-1.8832752811055267
1658,1658,2078,-2.978454312445566
1659,1659,2078,-3.989503480813848
1660,1660,2079,-3.913655599137047
1661,1661,2080,-3.748403045936893
1662,1662,2082,-2.4915167803112226
1663,1663,2083,-2.1410590023533924
1664,1664,2084,-1.6953574683881918
1665,1665,2087,0.8469679093089617
1666,1666,2090,3.4869742153053336
1667,1667,2095,8.225424400833074
1668,1668,2098,11.062742565769272
1669,1669,2099,11.999066242762503
1670,1670,2099,12.034219727140236
1671,1671,2097,10.167720541564352
1672,1672,2097,10.398829606244673
1673,1673,2097,10.72647454130818
1674,1674,2099,13.149318144672264
1675,1675,2101,15.665710405814073
1676,1676,2102,17.273721583880597
1677,1677,2102,17.971128354201298
1678,1678,2102,18.75544354439699
1679,1679,2101,18.62389884680426
1680,1680,2098,16.573455120482762
1681,1681,2096,15.60085628735834
1682,1682,2092,12.702577339746732
1683,1683,2088,9.874885088121129
1684,1684,2083,6.11385167582777
1685,1685,2078,2.4154167438708565
1686,1686,2074,-0.2246191618149238
1687,1687,2070,-2.8106220073120505
1688,1688,2066,-5.347092554109714
1689,1689,2061,-8.838692889846046
1690,1690,2055,-13.290219145053523
1691,1691,2051,-15.706541865834463
1692,1692,2048,-17.092615457268273
1693,1693,2044,-19.453444732689725
1694,1694,2041,-20.794051449289668
1695,1695,2039,-21.119478050938028
1696,1696,2038,-20.434791332722266
1697,1697,2037,-19.74507016933866
1698,1698,2037,-18.055350659560002
1699,1699,2036,-17.370603573471328
1700,1700,2034,-17.69565898184167
1701,1701,2032,-18.03515277015116
1702,1702,2031,-17.393559038355683
1703,1703,2031,-15.775275979837582
1704,1704,2032,-13.184754083754534
1705,1705,2034,-9.626554467712321
1706,1706,2034,-8.105359044768987
1707,1707,2034,-6.625847749176437
1708,1708,2034,-5.192560858960815
1709,1709,2034,-3.809725598707017
1710,1710,2034,-2.481084633611495
1711,1711,2033,-2.209828100426556
1712,1712,2033,-0.9985539594857984
1713,1713,2033,0.15064258525268698
1714,1714,2033,1.2360685081355915
1715,1715,2034,3.2563215904026594
1716,1716,2035,5.210120012227278
1717,1717,2035,6.0962004630441475
1718,1718,2035,6.913246967308032
1719,1719,2034,6.659871639730942
1720,1720,2033,6.3346905869242605
1721,1721,2032,5.936415549722527
1722,1722,2032,6.464046775709729
1723,1723,2033,7.917012417722566
1724,1724,2033,8.295302242598703
1725,1725,2032,7.599552387809372
1726,1726,2032,7.83095786440279
1727,1727,2031,6.991140405286842
1728,1728,2032,8.082040872719633
1729,1729,2034,10.105735044614985
1730,1730,2034,10.064338662850563
1731,1731,2034,9.960066389848265
1732,1732,2032,7.795247676461302
1733,1733,2031,6.5723956333007845
1734,1734,2030,5.2942009020863035
1735,1735,2030,4.963562445450305
1736,1736,2030,4.583532338882171
1737,1737,2030,4.1573399449221515
1738,1738,2029,2.6883460908189716
1739,1739,2028,1.1800340396162095
1740,1740,2028,0.63603734070686
1741,1741,2029,1.0600873034878422
1742,1742,2030,1.456018731418768
1743,1743,2031,1.8277326366942273
1744,1744,2031,1.1791801302167375
1745,1745,2031,0.5143300880070689
1746,1746,2031,-0.16285257948494358
1747,1747,2030,-1.8483700047418914
1748,1748,2030,-2.5382184536193697
1749,1749,2030,-3.2284260228369
1750,1750,2031,-2.915042235039877
1751,1751,2031,-3.5942126722417953
1752,1752,2032,-3.262146562594627
1753,1753,2033,-2.915169394638372
1754,1754,2032,-4.549695159661602
1755,1755,2032,-5.162208878570574
1756,1756,2032,-5.749360779104608
1757,1757,2031,-7.3079371991382205
1758,1758,2031,-7.834878819123758
1759,1759,2032,-7.32730893609637
1760,1760,2033,-6.7825395847617935
1761,1761,2034,-6.198060948886884
1762,1762,2035,-5.571567405447921
1763,1763,2036,-4.900966709030498
1764,1764,2036,-5.184382950325072
1765,1765,2035,-6.420174665516841
1766,1766,2034,-7.606930718360864
1767,1767,2034,-7.743481127893585
1768,1768,2034,-7.828912264709603
1769,1769,2034,-7.8625651634702045
1770,1770,2035,-6.844038193463173
1771,1771,2036,-5.77320456295543
1772,1772,2037,-4.650186087065967
1773,1773,2037,-4.47534198651209
1774,1774,2038,-3.24925673805945
1775,1775,2037,-3.972801651490785
1776,1776,2036,-4.647067389607313
1777,1777,2036,-4.273434278400842
1778,1778,2036,-3.8535402200117077
1779,1779,2037,-2.389231527307658
1780,1780,2039,0.11739644706799268
1781,1781,2041,2.6640396669730926
1782,1782,2044,6.2481892573057145
1783,1783,2046,8.867114774604424
1784,1784,2047,10.51792295333846
1785,1785,2047,11.19753718349332
1786,1786,2047,11.902746993860003
1787,1787,2046,11.630172760711709
1788,1788,2045,11.37631103657474
1789,1789,2043,10.137527061755272
1790,1790,2043,10.910079865467887
1791,1791,2042,10.690115860345198
1792,1792,2042,11.473732172510498
1793,1793,2042,12.256938952957196
1794,1794,2040,11.035717977454647
1795,1795,2038,9.806033367543968
1796,1796,2036,8.563837157051207
1797,1797,2036,9.30507498668985
1798,1798,2036,10.025702502437342
1799,1799,2037,11.721728457853592
1800,1800,2038,13.389193632653761
1801,1801,2038,14.02421897277152
1802,1802,2038,14.623032227027984
1803,1803,2038,15.181978230521572
1804,1804,2040,17.69756087345178
1805,1805,2041,19.16638860310156
1806,1806,2042,20.58522606304671
1807,1807,2043,21.95097048109428
1808,1808,2045,24.260664863321352
1809,1809,2050,29.51154260829705
1810,1810,2065,44.701092781281346
1811,1811,2086,65.82697533461763
1812,1812,2106,85.88706353932537
1813,1813,2115,94.87945361013655
1814,1814,2103,82.80246813604504
1815,1815,2064,43.654674678880966
1816,1816,2005,-15.565027252021505
1817,1817,1935,-85.85746967431986
1818,1818,1871,-150.2231791985227
1819,1819,1828,-193.66242636290877
1820,1820,1814,-208.17524930551917
1821,1821,1833,-189.76141445634408
1822,1822,1877,-146.42051158454703
1823,1823,1932,-92.1518899028649
1824,1824,1984,-40.95461653487771
1825,1825,2024,-1.8274732555941906
1826,1826,2046,19.231051001114736
1827,1827,2055,27.222787910513322
1828,1828,2058,29.149847233642827
1829,1829,2057,27.014551927568696
1830,1830,2057,25.819484207306648
1831,1831,2056,23.56742409517491
1832,1832,2057,23.26139385689283
1833,1833,2057,21.90460007791982
1834,1834,2058,21.500492323233463
1835,1835,2059,21.05271962373414
1836,1836,2060,20.565118075919113
1837,1837,2061,20.04168182678242
1838,1838,2062,19.486560075297973
1839,1839,2062,17.903994773629964
1840,1840,2062,16.298375122127315
1841,1841,2062,14.674184854459812
1842,1842,2062,13.036045111720846
1843,1843,2063,12.388660911229554
1844,1844,2064,11.736799303411093
1845,1845,2065,11.08525659565796
1846,1846,2066,10.438857360465816
1847,1847,2067,9.802426686146543
1848,1848,2068,9.180783630966136
1849,1849,2068,7.578718707628822
1850,1850,2067,5.000998055526605
1851,1851,2066,2.4523357193891493
1852,1852,2066,0.9373716217006107
1853,1853,2067,0.4606603418933082
1854,1854,2069,1.0266494583442998
1855,1855,2072,2.6396636296868463
1856,1856,2073,2.303862338551252
1857,1857,2073,1.0232835180009525
1858,1858,2071,-2.198224219307286
1859,1859,2070,-4.356972689303906
1860,1860,2069,-6.449500592721255
1861,1861,2069,-7.47253253807123
1862,1862,2070,-7.423027992147615
1863,1863,2072,-6.298165563042548
1864,1864,2074,-5.095379785264372
1865,1865,2076,-3.8123276506034083
1866,1866,2078,-2.4469341784990233
1867,1867,2080,-0.9973463806705851
1868,1868,2081,-0.46199830448800583
1869,1869,2082,0.160388930355305
1870,1870,2082,-0.12922925783966832
1871,1871,2084,1.6698184617380587
1872,1872,2086,3.5578904789231736
1873,1873,2088,5.535068463763089
1874,1874,2090,7.601199917926063
1875,1875,2091,8.755872406106972
1876,1876,2091,8.998383454941795
1877,1877,2090,8.327748797478693
1878,1878,2092,10.742695670738346
1879,1879,2095,14.241646495456926
1880,1880,2098,17.822730258231353
1881,1881,2100,20.48384826378236
1882,1882,2099,20.22265546711106
1883,1883,2095,17.03657480952105
1884,1884,2092,14.922839128947938
1885,1885,2090,13.878437806703225
1886,1886,2090,14.900154889678571
1887,1887,2091,16.984533273033357
1888,1888,2088,15.127898273517003
1889,1889,2084,12.326445867444267
1890,1890,2077,6.576176928130442
1891,1891,2071,1.8729919458051825
1892,1892,2066,-1.7873364197576156
1893,1893,2061,-5.409163693858205
1894,1894,2056,-8.99693636096349
1895,1895,2053,-10.555191533741626
1896,1896,2049,-13.088545641977746
1897,1897,2046,-14.601645544085999
1898,1898,2043,-16.099172848098448
1899,1899,2040,-17.585805429726403
1900,1900,2037,-19.066205568202587
1901,1901,2035,-19.545029663890674
1902,1902,2033,-20.026916652702067
1903,1903,2032,-19.516439249654486
1904,1904,2032,-18.018082228702667
1905,1905,2033,-15.536178609719968
1906,1906,2033,-14.074873191062284
1907,1907,2033,-12.638102717767506
1908,1908,2032,-12.229672470263262
1909,1909,2031,-11.853380635140764
1910,1910,2031,-10.51307827307495
1911,1911,2032,-8.212745088205557
1912,1912,2031,-7.956378784809669
1913,1913,2031,-6.7478264109118475
1914,1914,2031,-5.590600995065694
1915,1915,2031,-4.487716141703167
1916,1916,2033,-1.4415870118112373
1917,1917,2034,0.5458527488210725
1918,1918,2035,2.4730000101652596
1919,1919,2035,3.338382034869969
1920,1920,2034,3.140536359463738
1921,1921,2031,0.8779500404597913
1922,1922,2030,0.5492238507730807
1923,1923,2029,0.15319970402153038
1924,1924,2030,1.6891890889382992
1925,1925,2032,4.157034916149813
1926,1926,2034,6.5571288505213925
1927,1927,2035,7.890314565855908
1928,1928,2035,8.15775151527475
1929,1929,2035,8.360803434981717
1930,1930,2034,7.50094134814531
1931,1931,2033,6.579736329277296
1932,1932,2033,6.598904987094257
1933,1933,2033,6.560322382537231
1934,1934,2034,7.4660984761951354
1935,1935,2034,7.318552550442188
1936,1936,2034,7.12023481724565
1937,1937,2033,5.873877898200551
1938,1938,2033,5.582379703477294
1939,1939,2033,5.248769636645555
1940,1940,2032,3.876232812405726
1941,1941,2032,3.468112263044947
1942,1942,2033,4.027878539137918
1943,1943,2033,3.5591467838438495
1944,1944,2032,2.0656292385332313
1945,1945,2031,0.5511141371497992
1946,1946,2031,0.01944429946093118
1947,1947,2031,-0.5254992202871411
1948,1948,2033,0.9202024047867976
1949,1949,2034,1.3604678125781762
1950,1950,2035,1.7992361331102682
1951,1951,2034,0.24042364983449804
1952,1952,2033,-1.3120768385130521
1953,1953,2032,-2.8544231938634868
1954,1954,2031,-4.382840288422537
1955,1955,2032,-3.893625391879135
1956,1956,2033,-3.383195976430735
1957,1957,2033,-3.8480677563710297
1958,1958,2033,-4.284896216399828
1959,1959,2032,-5.690501605851396
1960,1960,2032,-6.061834637252162
1961,1961,2031,-7.39602699177869
1962,1962,2031,-7.690361156684519
1963,1963,2031,-7.942330270396359
1964,1964,2032,-7.149633183275325
1965,1965,2033,-6.31020598859064
1966,1966,2034,-5.422183450391469
1967,1967,2035,-4.483923494705905
1968,1968,2035,-4.493998764570226
1969,1969,2034,-5.451245879822939
1970,1970,2033,-6.354770910803592
1971,1971,2032,-7.203964537138965
1972,1972,2032,-6.998505494719092
1973,1973,2033,-5.73830964258452
1974,1974,2033,-5.423547307712057
1975,1975,2034,-4.054611639492643
1976,1976,2034,-3.6321820151860553
1977,1977,2034,-3.1571955948111534
1978,1978,2034,-2.6308764701423506
1979,1979,2033,-3.054731826145021
1980,1980,2033,-2.4305042873148617
1981,1981,2032,-2.760235129189169
1982,1982,2030,-4.046182546371401
1983,1983,2029,-4.290845580215841
1984,1984,2030,-2.4969390119303143
1985,1985,2033,1.3325952861064492
1986,1986,2036,5.194583117943225
1987,1987,2039,9.085682862815592
1988,1988,2040,11.002365890420151
1989,1989,2040,11.94093503303256
1990,1990,2039,11.897538514242587
1991,1991,2039,12.868179282506745
1992,1992,2039,13.848756841184926
1993,1993,2038,13.835066848060633
1994,1994,2038,14.822811890770904
1995,1995,2037,14.807602031403711
1996,1996,2035,13.785003652730719
1997,1997,2033,12.7505726524209
1998,1998,2031,11.699839903885637
1999,1999,2029,10.62834483223228
2000,2000,2029,11.531653139004531
2001,2001,2029,12.405331947008793
2002,2002,2030,14.245004822346207
2003,2003,2030,15.046369312515267
2004,2004,2031,16.805262349892047
2005,2005,2031,17.517613302711148
2006,2006,2031,18.179519353612694
2007,2007,2030,17.7871818838455
2008,2008,2030,18.336959700606595
2009,2009,2031,19.825368359194723
2010,2010,2031,20.249105653755024
2011,2011,2033,22.605081768811296
2012,2012,2038,27.89040610863837
2013,2013,2049,39.102442758655165
2014,2014,2067,57.2387690126124
2015,2015,2087,77.29718642836536
2016,2016,2100,90.27572025382123
2017,2017,2095,85.17267129267884
2018,2018,2065,54.98660285775743
2019,2019,2013,2.7164120137193732
2020,2020,1947,-63.63870147856747
2021,2021,1881,-130.0792139317777
2022,2022,1829,-182.6052949310743
2023,2023,1804,-208.21679899045895
2024,2024,1811,-201.91329037810496
2025,2025,1845,-168.6941064441515
2026,2026,1896,-118.55832072418912
2027,2027,1951,-64.50473393318862
2028,2028,1997,-19.531871439335468
2029,2029,2027,9.362098227994133
2030,2030,2042,23.179336974874616
2031,2031,2048,27.922315133470516
2032,2032,2048,26.59375107202569
2033,2033,2048,25.19662437712866
2034,2034,2049,24.73414532495218
2035,2035,2050,24.209771335716674
2036,2036,2052,24.62721715617213
2037,2037,2053,23.990416096085493
2038,2038,2053,22.303523086020945
2039,2039,2054,21.570879540378762
2040,2040,2056,21.79700950355713
2041,2041,2058,21.986588303995987
2042,2042,2060,22.14446918179469
2043,2043,2062,22.27564005983343
2044,2044,2062,20.385185068140785
2045,2045,2061,17.478304350848198
2046,2046,2061,15.560285495884534
2047,2047,2061,13.636453184132202
2048,2048,2061,11.712182658572598
2049,2049,2061,9.792886319857523
2050,2050,2061,7.883984106325567
2051,2051,2061,5.990895141306067
2052,2052,2061,4.11898671954964
2053,2053,2062,3.273603433527599
2054,2054,2064,3.4600164327074614
2055,2055,2064,1.6833943799505953
2056,2056,2065,0.9488333118214056
2057,2057,2065,-0.7387306595811074
2058,2058,2065,-2.3744960675844378
2059,2059,2066,-2.953829036564578
2060,2060,2067,-3.472258351435217
2061,2061,2068,-3.9254857794867752
2062,2062,2069,-4.309406362531039
2063,2063,2071,-3.6201280146479644
2064,2064,2072,-3.8540063636575375
2065,2065,2073,-4.007636027007436
2066,2066,2075,-3.0778782775837277
2067,2067,2077,-2.0618717840716125
2068,2068,2078,-1.957031801178477
2069,2069,2078,-2.7610536739143012
2070,2070,2079,-2.4719366149509927
2071,2071,2080,-2.087985082078521
2072,2072,2083,0.3922177246105276
2073,2073,2086,2.9697681986260775
2074,2074,2089,5.64547120214918
2075,2075,2092,8.41982732988631
2076,2076,2092,8.292962556494684
2077,2077,2092,8.264719148030544
2078,2078,2093,9.334603630712826
2079,2079,2093,9.501794603108827
2080,2080,2095,11.765210472207793
2081,2081,2096,13.123444902065025
2082,2082,2097,14.574836768825909
2083,2083,2098,16.117439820091416
2084,2084,2099,17.74902537654115
2085,2085,2100,19.467102193164546
2086,2086,2100,20.26889992767172
2087,2087,2099,20.151390763847658
2088,2088,2097,19.111274558443327
2089,2089,2094,17.145002195430493
2090,2090,2091,15.24879449463079
2091,2091,2088,13.418688565128857
2092,2092,2084,10.650520874713399
2093,2093,2081,8.940007064708563
2094,2094,2076,5.282672890484418
2095,2095,2072,2.6739083736880467
2096,2096,2066,-1.8910361709662653
2097,2097,2061,-5.416989777280489
2098,2098,2056,-8.908842881243284
2099,2099,2050,-13.371550469089835
2100,2100,2045,-16.810076406518288
2101,2101,2041,-19.229433732865896
2102,2102,2038,-20.634655537494485
2103,2103,2038,-19.03074445704265
2104,2104,2038,-17.42271303667164
2105,2105,2038,-15.815491028356062
2106,2106,2036,-16.21395553657159
2107,2107,2033,-17.622897442054622
2108,2108,2029,-20.047025642652795
2109,2109,2027,-20.490907724625174
2110,2110,2026,-19.958927123086866
2111,2111,2026,-18.4551451137767
2112,2112,2027,-15.983313045587064
2113,2113,2028,-13.54695981637681
2114,2114,2029,-11.149592021636499
2115,2115,2030,-8.794910647058792
2116,2116,2030,-7.486953300668491
2117,2117,2030,-6.229991321995844
2118,2118,2030,-5.0283953466705595
2119,2119,2030,-3.886277483849054
2120,2120,2031,-1.8071451882440601
2121,2121,2031,-0.7936898873423025
2122,2122,2030,-0.847614673518658
2123,2123,2030,0.030264055921784383
2124,2124,2030,0.8397585339046836
2125,2125,2030,1.5810019263572195
2126,2126,2030,2.254208539300902
2127,2127,2031,3.859518391336491
2128,2128,2031,4.39702770382267
2129,2129,2030,3.866941292541874
2130,2130,2030,4.269654956262553
2131,2131,2030,4.605821054603719
2132,2132,2029,3.8763384156935916
2133,2133,2030,5.082421233776685
2134,2134,2031,6.225501584664205
2135,2135,2032,7.307290976128583
2136,2136,2033,8.32972881764975
2137,2137,2034,9.294972590160738
2138,2138,2033,8.205397862465164
2139,2139,2032,7.063608146414728
2140,2140,2030,4.872374593852987
2141,2141,2030,4.634660259014492
2142,2142,2030,4.35357965143157
2143,2143,2031,5.032405644315113
2144,2144,2031,4.674543712756245
2145,2145,2031,4.283537675705783
2146,2146,2031,3.8630323260418553
2147,2147,2030,2.4167569949268026
2148,2148,2030,1.9485515150211676
2149,2149,2029,0.46229054449534734
2150,2150,2029,-0.03810166589472974
2151,2151,2030,0.45128870806861077
2152,2152,2031,0.934352926328843
2153,2153,2032,1.4149741930661897
2154,2154,2033,1.8970263198445139
2155,2155,2032,0.38434591434525256
2156,2156,2032,-0.11923653862501382
2157,2157,2031,-1.6100306519026342
2158,2158,2031,-2.0844223278866334
2159,2159,2030,-3.53895348260189
2160,2160,2031,-2.970278738735214
2161,2161,2031,-3.3752175968820324
2162,2162,2031,-3.7507152454065253
2163,2163,2030,-5.093888133526793
2164,2164,2030,-5.401999457677759
2165,2165,2030,-5.672524536051974
2166,2166,2032,-3.903140710722488
2167,2167,2034,-2.091764367680649
2168,2168,2035,-1.2365229531098545
2169,2169,2034,-2.3358007091695967
2170,2170,2032,-4.388214090260794
2171,2171,2030,-6.392628747177701
2172,2172,2028,-8.348159569989482
2173,2173,2028,-8.25415904115523
2174,2174,2030,-6.110252415386526
2175,2175,2031,-4.9163451652822
2176,2176,2032,-3.6725972682533228
2177,2177,2031,-4.379471035291978
2178,2178,2030,-5.037681775655297
2179,2179,2027,-7.648195459980814
2180,2180,2026,-8.2121826798816
2181,2181,2025,-8.731110169567625
2182,2182,2026,-7.206681856833935
2183,2183,2028,-4.640912108153
2184,2184,2031,-1.036085818050715
2185,2185,2034,2.6052931534080708
2186,2186,2036,5.280527757361943
2187,2187,2037,6.986743710445459
2188,2188,2038,8.720890250684795
2189,2189,2039,10.479667198679177
2190,2190,2039,11.259580928022867
2191,2191,2041,14.056963801096959
2192,2192,2041,14.867983624782601
2193,2193,2040,14.688722969019715
2194,2194,2038,13.515141681123033
2195,2195,2036,12.343125317150706
2196,2196,2034,11.168501950292956
2197,2197,2032,9.987032655028596
2198,2198,2032,10.794471697697483
2199,2199,2033,12.586546923908074
2200,2200,2032,12.35898299027271
2201,2201,2032,13.107551305626577
2202,2202,2031,12.828039894341027
2203,2203,2031,13.516319240656047
2204,2204,2030,13.168317302537007
2205,2205,2031,14.780084916335731
2206,2206,2031,15.347754225657503
2207,2207,2032,16.867592847512793
2208,2208,2032,17.335972292619775
2209,2209,2033,18.749448010248503
2210,2210,2032,18.104716232996374
2211,2211,2032,18.398708782118693
2212,2212,2036,22.628564453950435
2213,2213,2048,34.79161574109591
2214,2214,2068,54.88540678474048
2215,2215,2092,78.90766231875796
2216,2216,2109,95.85631446523031
2217,2217,2107,93.72955527851818
2218,2218,2080,66.52587237133837
2219,2219,2030,16.244110419121423
2220,2220,1963,-51.11658578300281
2221,2221,1896,-118.55670669115038
2222,2222,1844,-171.0765172973658
2223,2223,1818,-197.67603248832904
2224,2224,1821,-195.35503620393882
2225,2225,1850,-167.11303761139902
2226,2226,1896,-121.9492496918237
2227,2227,1946,-72.86260090190191
2228,2228,1990,-29.851678559404643
2229,2229,2021,0.08521452566747434
2230,2230,2039,16.95007671122354
2231,2231,2047,23.745191110318526
2232,2232,2049,24.47311881917059
2233,2233,2050,24.136701647331606
2234,2234,2051,23.739026462050244
2235,2235,2052,23.2834311533283
2236,2236,2053,22.77346688979527
2237,2237,2054,22.21290748154166
2238,2238,2054,20.605720547630213
2239,2239,2055,19.95607507455254
2240,2240,2055,18.26831084098703
2241,2241,2056,17.546955275070356
2242,2242,2058,17.796686198609343
2243,2243,2059,17.022325857496728
2244,2244,2060,16.22881843724155
2245,2245,2060,14.421164389604792
2246,2246,2060,12.604455685160042
2247,2247,2060,10.783852044705357
2248,2248,2060,8.964556877768656
2249,2249,2061,8.15183566543159
2250,2250,2062,7.350948900793114
2251,2251,2063,6.567138302356934
2252,2252,2064,5.805581029199434
2253,2253,2065,5.071402737058656
2254,2254,2066,4.369669474803631
2255,2255,2066,2.705353140289219
2256,2256,2067,2.083355805065999
2257,2257,2067,0.5084437533614765
2258,2258,2067,-1.014764617830127
2259,2259,2068,-1.481821090122116
2260,2260,2069,-1.8884638946642216
2261,2261,2071,-1.230612017871008
2262,2262,2072,-1.5044067948337645
2263,2263,2073,-1.7061726490144902
2264,2264,2073,-2.832478439632004
2265,2265,2073,-3.880117959189357
2266,2266,2074,-3.8461428474039643
2267,2267,2076,-2.7278784902107116
2268,2268,2078,-1.522944260248786
2269,2269,2080,-0.22926200742973535
2270,2270,2081,0.1549366464019588
2271,2271,2081,-0.3688852062185264
2272,2272,2082,0.2004518870193115
2273,2273,2085,2.863855960667321
2274,2274,2088,5.621928932038254
2275,2275,2091,8.474959689991476
2276,2276,2094,11.422923641391517
2277,2277,2096,13.465456761388626
2278,2278,2096,13.60188426874106
2279,2279,2097,14.831234459754617
2280,2280,2097,15.152205783050949
2281,2281,2097,15.56323644391681
2282,2282,2097,16.06244703032648
2283,2283,2098,17.64765893736
2284,2284,2099,19.316408483926004
2285,2285,2098,19.06597262687275
2286,2286,2097,18.893416981702014
2287,2287,2096,18.795554188649362
2288,2288,2093,16.768967280322755
2289,2289,2091,15.810028634297808
2290,2290,2088,13.914882430362212
2291,2291,2086,13.079497167696019
2292,2292,2083,11.299660077617224
2293,2293,2079,8.571014779804873
2294,2294,2074,4.889067579321307
2295,2295,2068,0.24921553653184958
2296,2296,2063,-3.3532571323852602
2297,2297,2058,-6.923176892099007
2298,2298,2053,-10.46543043141211
2299,2299,2049,-12.984956750213644
2300,2300,2045,-15.4867337842404
2301,2301,2040,-18.975716988749866
2302,2302,2036,-21.456804565007236
2303,2303,2034,-21.934775931437677
2304,2304,2032,-22.414294290829563
2305,2305,2032,-20.899893782832468
2306,2306,2032,-19.396154338296075
2307,2307,2031,-18.907765508658667
2308,2308,2030,-18.439548195307673
2309,2309,2030,-16.996396467801816
2310,2310,2029,-16.583192586903873
2311,2311,2029,-15.204636279295944
2312,2312,2030,-12.865100536995037
2313,2313,2030,-11.568519876605006
2314,2314,2031,-9.31825823411069
2315,2315,2030,-9.117165096315528
2316,2316,2031,-6.967585193089853
2317,2317,2030,-6.871662981055392
2318,2318,2029,-6.831504269009916
2319,2319,2028,-6.849359814189297
2320,2320,2027,-6.927606796768322
2321,2321,2027,-6.068597648911302
2322,2322,2028,-4.2744726509369215
2323,2323,2031,-0.546942214773974
2324,2324,2033,2.112848709638642
2325,2325,2035,4.704405937269707
2326,2326,2035,5.227804215706959
2327,2327,2034,4.683577506614416
2328,2328,2034,5.072587259066613
2329,2329,2033,4.395853146011611
2330,2330,2034,5.654511550805364
2331,2331,2034,5.849773472361814
2332,2332,2034,5.983025420442229
2333,2333,2033,5.055843824539542
2334,2334,2033,5.070077601601139
2335,2335,2033,5.027817456957028
2336,2336,2034,5.931401528173494
2337,2337,2035,6.783382705262362
2338,2338,2035,6.586484336290285
2339,2339,2036,7.343603159409356
2340,2340,2035,6.057795504797712
2341,2341,2035,5.732321461385009
2342,2342,2035,5.370587122058348
2343,2343,2034,3.9761289239896094
2344,2344,2034,3.5526240859871754
2345,2345,2034,3.1037885821192943
2346,2346,2033,1.6334081281606194
2347,2347,2033,1.1453581761424947
2348,2348,2033,0.6435329142231812
2349,2349,2033,0.13185948815072646
2350,2350,2033,-0.3857144696518109
2351,2351,2032,-1.905243977219206
2352,2352,2032,-2.422793831476256
2353,2353,2032,-2.9344776206276686
2354,2354,2034,-1.4364432392920947
2355,2355,2035,-0.9249435944318316
2356,2356,2035,-1.3963214692015775
2357,2357,2035,-1.8470152603509429
2358,2358,2033,-4.273617638115369
2359,2359,2032,-5.672837591033902
2360,2360,2032,-6.041547267390481
2361,2361,2033,-5.376801501787208
2362,2362,2034,-4.675845888436516
2363,2363,2035,-3.9361186792944314
2364,2364,2036,-3.1552572044399962
2365,2365,2037,-2.331130031333668
2366,2366,2038,-1.4618361302293073
2367,2367,2038,-1.5456870585519358
2368,2368,2038,-1.5812201262458316
2369,2369,2036,-3.567263896287088
2370,2370,2034,-5.502917289583873
2371,2371,2033,-6.3875596430537245
2372,2372,2033,-6.220854270168328
2373,2373,2035,-4.002708159401579
2374,2374,2037,-1.733315842758231
2375,2375,2037,-1.4131219656966634
2376,2376,2037,-1.0428307524299631
2377,2377,2035,-2.6234676024690877
2378,2378,2033,-4.156322171050139
2379,2379,2032,-4.64294912988913
2380,2380,2031,-5.085167655678796
2381,2381,2032,-3.485027887288602
2382,2382,2033,-1.8448510226030428
2383,2383,2035,0.8328170938669031
2384,2384,2039,5.545221391441952
2385,2385,2043,10.289371282707277
2386,2386,2046,14.06210600434991
2387,2387,2047,15.860070207198921
2388,2388,2046,15.679754406271705
2389,2389,2044,14.517477486984747
2390,2390,2042,13.36939650688599
2391,2391,2040,12.231538509514506
2392,2392,2040,13.09985432604256
2393,2393,2039,12.970166224861138
2394,2394,2037,11.83825994836336
2395,2395,2036,11.699854465941737
2396,2396,2034,10.55060930734161
2397,2397,2034,11.386180183336455
2398,2398,2034,12.202216153915346
2399,2399,2035,13.994410123757369
2400,2400,2035,14.7584533115129
2401,2401,2035,15.49011760464214
2402,2402,2036,17.18525770805662
2403,2403,2036,17.839813044747796
2404,2404,2036,18.449889296422782
2405,2405,2037,20.011716870306763
2406,2406,2037,20.52165164380845
2407,2407,2036,19.97618591230626
2408,2408,2035,19.37196946216727
2409,2409,2038,22.705846036541622
2410,2410,2047,31.97488372045183
2411,2411,2064,49.176377774671934
2412,2412,2087,72.30784193474469
2413,2413,2105,90.36699346553158
2414,2414,2107,92.3518013060863
2415,2415,2085,70.26051191979691
2416,2416,2039,24.091684781066103
2417,2417,1973,-42.15582114658582
2418,2418,1902,-113.48282475925971
2419,2419,1842,-173.88983865619736
2420,2420,1806,-210.37709674001607
2421,2421,1803,-213.94454573740865
2422,2422,1831,-186.59191259225844
2423,2423,1882,-136.31865558569754
2424,2424,1939,-80.12395933901693
2425,2425,1989,-31.00669914440958
2426,2426,2023,2.0345668258141094
2427,2427,2041,19.00162015486503
2428,2428,2048,24.89656625168032
2429,2429,2050,25.721795979485034
2430,2430,2051,25.47994085045545
2431,2431,2051,24.173885694988098
2432,2432,2052,23.806769555133556
2433,2433,2053,23.38194828160125
2434,2434,2055,23.903041452828592
2435,2435,2056,23.373882307878155
2436,2436,2056,21.798520174017
2437,2437,2057,21.181206007329155
2438,2438,2058,20.52633977800712
2439,2439,2059,19.838465232204054
2440,2440,2059,18.122253357609942
2441,2441,2060,17.382517283315043
2442,2442,2060,15.624178608054565
2443,2443,2060,13.852265191150376
2444,2444,2060,12.071892614319468
2445,2445,2060,10.288218690905547
2446,2446,2060,8.506435090240126
2447,2447,2062,8.731758784479076
2448,2448,2064,8.969359425976432
2449,2449,2066,9.224404067638563
2450,2450,2067,8.502000661233494
2451,2451,2066,5.807227129805822
2452,2452,2064,2.14511260182584
2453,2453,2063,-0.47939708133795733
2454,2454,2063,-2.061484154763214
2455,2455,2065,-1.5964713194799072
2456,2456,2066,-2.079897574791544
2457,2457,2068,-1.507433375912024
2458,2458,2070,-0.8749711293426095
2459,2459,2070,-2.17858689073127
2460,2460,2071,-2.414543881188332
2461,2461,2072,-2.579321884983186
2462,2462,2073,-2.669656503098272
2463,2463,2075,-1.6825401019299786
2464,2464,2077,-0.6152590698211711
2465,2465,2078,-0.4653820632103489
2466,2466,2079,-0.23072575506684156
2467,2467,2081,1.090616496264591
2468,2468,2082,1.5002737877015244
2469,2469,2083,1.999582082405877
2470,2470,2085,3.5895537678864473
2471,2471,2086,4.270869775617383
2472,2472,2088,6.043926193713407
2473,2473,2090,7.908807403942424
2474,2474,2092,9.865319004963803
2475,2475,2094,11.912984447304469
2476,2476,2095,13.05101092669791
2477,2477,2096,14.278320526253793
2478,2478,2097,15.593497146551822
2479,2479,2099,17.99483591698409
2480,2480,2100,19.48031912924063
2481,2481,2101,21.047689190157477
2482,2482,2100,20.69442653112575
2483,2483,2098,19.417803176539657
2484,2484,2096,18.214878486160444
2485,2485,2095,18.082511801077708
2486,2486,2094,18.017343869774866
2487,2487,2093,18.015805704282634
2488,2488,2090,16.074128195891234
2489,2489,2086,13.188384360453048
2490,2490,2081,9.354516188388759
2491,2491,2076,5.568330047633103
2492,2492,2071,1.825545733597496
2493,2493,2065,-2.8782501528085405
2494,2494,2060,-6.547543768268805
2495,2495,2055,-10.186929428104511
2496,2496,2050,-13.801059585887954
2497,2497,2046,-16.394562555815416
2498,2498,2043,-17.972002675077512
2499,2499,2041,-18.53781393536255
2500,2500,2039,-19.09633006282648
2501,2501,2037,-19.65190597782349
2502,2502,2036,-19.209008296005926
2503,2503,2035,-18.772301245762858
2504,2504,2034,-18.34657268579254
2505,2505,2033,-17.936691937693997
2506,2506,2032,-17.5474018418024
2507,2507,2030,-18.183233168042616
2508,2508,2030,-16.84829097899154
2509,2509,2030,-15.546265525061067
2510,2510,2031,-13.2803108257365
2511,2511,2032,-11.053164766181839
2512,2512,2033,-8.867207164066857
2513,2513,2034,-6.7245734768686205
2514,2514,2032,-7.627227986609257
2515,2515,2030,-8.576963917774043
2516,2516,2027,-10.575473735641612
2517,2517,2025,-11.624328674556121
2518,2518,2027,-8.725091186646488
2519,2519,2030,-4.879379225031998
2520,2520,2036,1.9112291774301868
2521,2521,2039,5.645205098276348
2522,2522,2038,5.32132165665603
2523,2523,2035,2.938814013373899
2524,2524,2031,-0.5025590739031435
2525,2525,2029,-2.0024611994475974
2526,2526,2028,-2.560059251730719
2527,2527,2031,0.8259158324430775
2528,2528,2033,3.156958411513694
2529,2529,2033,3.434758666392198
2530,2530,2033,3.6611035776676712
2531,2531,2033,3.837852138791189
2532,2532,2033,3.9669578343799965
2533,2533,2034,5.050495494275702
2534,2534,2035,6.090697829555741
2535,2535,2035,6.089964419497099
2536,2536,2035,6.050848608999135
2537,2537,2035,5.97605984667865
2538,2538,2033,3.868412098125778
2539,2539,2032,2.730867797789107
2540,2540,2032,2.5664692986906177
2541,2541,2032,2.37833391786793
2542,2542,2033,3.1696540111715548
2543,2543,2034,3.9436593321528086
2544,2544,2033,2.7035953438551568
2545,2545,2032,1.4527441969207944
2546,2546,2031,0.19436568796973397
2547,2547,2030,-1.06828700566733
2548,2548,2030,-1.3319781445619592
2549,2549,2031,-0.5935374670301647
2550,2550,2031,-0.8498707193243393
2551,2551,2030,-2.0979538008739333
2552,2552,2029,-3.334853099714122
2553,2553,2029,-3.5577239541263705
2554,2554,2029,-3.7638459045021446
2555,2555,2029,-3.9506307644956977
2556,2556,2030,-3.1156460342789005
2557,2557,2030,-3.2566376576608334
2558,2558,2029,-4.371536026530871
2559,2559,2029,-4.4584557694554805
2560,2560,2028,-5.515705332251999
2561,2561,2028,-5.541774293463675
2562,2562,2029,-4.535351759583922
2563,2563,2030,-3.4953597624953057
2564,2564,2031,-2.42093763812601
2565,2565,2032,-1.3114733972944066
2566,2566,2033,-0.1665860105076229
2567,2567,2033,0.013877347257403194
2568,2568,2032,-0.770149580697086
2569,2569,2031,-1.5189846329436278
2570,2570,2029,-3.2331912446357474
2571,2571,2028,-3.9135712779636025
2572,2572,2030,-1.5611780730489402
2573,2573,2033,1.822698236427163
2574,2574,2036,5.236573054068449
2575,2575,2038,7.678746686007819
2576,2576,2039,9.14731678284313
2577,2577,2040,10.640175729209128
2578,2578,2040,11.15499299812549
2579,2579,2041,12.689251899631266
2580,2580,2043,15.240276547813322
2581,2581,2044,16.805190200879686
2582,2582,2044,17.380991776432722
2583,2583,2043,16.9645477771556
2584,2584,2041,15.552638199210609
2585,2585,2039,14.141965732057951
2586,2586,2037,12.729117499352103
2587,2587,2036,12.310623261368077
2588,2588,2035,11.882933910917771
2589,2589,2035,12.442426971578222
2590,2590,2035,12.985433685339068
2591,2591,2035,13.508293104679545
2592,2592,2035,14.007385097064958
2593,2593,2036,15.479131356948233
2594,2594,2037,16.919975041420077
2595,2595,2037,17.32640826166552
2596,2596,2037,17.69498873173896
2597,2597,2037,18.022372132667073
2598,2598,2036,17.305306797932282
2599,2599,2035,16.540686768376787
2600,2600,2035,16.725556381291092
2601,2601,2038,19.857119628421692
2602,2602,2049,30.932754340792275
2603,2603,2069,50.95002039831556
2604,2604,2092,73.90664573820423
2605,2605,2106,87.80054362027217
2606,2606,2100,81.62987176314722
2607,2607,2071,52.39305854890979
2608,2608,2022,3.088780378453399
2609,2609,1961,-58.284024598842386
2610,2610,1901,-118.72612776786822
2611,2611,1854,-166.23805696881053
2612,2612,1828,-192.82007510265618
2613,2613,1828,-193.47218125153125
2614,2614,1851,-171.19416625874646
2615,2615,1894,-128.98553606579947
2616,2616,1944,-79.8455747338456
2617,2617,1989,-35.77326463740558
2618,2618,2022,-3.767298541579785
2619,2619,2040,13.173923244876843
2620,2620,2048,20.052278377499846
2621,2621,2050,20.869880152069147
2622,2622,2051,20.629124881863383
2623,2623,2053,21.332663554113388
2624,2624,2055,21.983404344446104
2625,2625,2058,23.584508822985704
2626,2626,2059,23.139328464353508
2627,2627,2060,22.65142016172852
2628,2628,2061,22.124507565016113
2629,2629,2061,20.562505520978032
2630,2630,2061,18.969501061831043
2631,2631,2060,16.34974959214325
2632,2632,2060,14.707665056073715
2633,2633,2061,14.04777751619191
2634,2634,2063,14.3747167937803
2635,2635,2066,15.693227601933659
2636,2636,2069,17.00811480801498
2637,2637,2070,16.324246959243826
2638,2638,2069,13.646543535781355
2639,2639,2068,10.979935347410972
2640,2640,2067,8.329367463647905
2641,2641,2068,7.699748766998269
2642,2642,2069,7.095976257664182
2643,2643,2071,7.522889967197871
2644,2644,2071,5.985227994605199
2645,2645,2071,4.487667139701658
2646,2646,2071,3.0347677925842387
2647,2647,2070,0.6309513170110694
2648,2648,2069,-1.719458076726006
2649,2649,2069,-3.012281654872165
2650,2650,2070,-3.2435179570878296
2651,2651,2071,-3.4093793782447337
2652,2652,2073,-2.506290665318597
2653,2653,2075,-1.5308919130680576
2654,2654,2076,-1.4800406994288622
2655,2655,2078,-0.3507973970490639
2656,2656,2080,0.8595104430719394
2657,2657,2082,2.153288797910621
2658,2658,2084,3.5326628038163985
2659,2659,2086,4.999458171018554
2660,2660,2087,5.555221046913267
2661,2661,2088,6.201228214829028
2662,2662,2089,6.93845570700797
2663,2663,2090,7.7675913106776076
2664,2664,2091,8.689021635872976
2665,2665,2092,9.702830991931133
2666,2666,2095,12.808822815993203
2667,2667,2099,17.00648359767596
2668,2668,2102,20.294985320635465
2669,2669,2103,21.6732104175814
2670,2670,2102,21.13973525245398
2671,2671,2100,19.69284672762965
2672,2672,2098,18.330575936714112
2673,2673,2096,17.050700894570085
2674,2674,2096,17.850771530193494
2675,2675,2095,17.728050270400292
2676,2676,2094,17.679539021761947
2677,2677,2091,15.701996478539527
2678,2678,2087,12.79195102954175
2679,2679,2084,10.945746539118051
2680,2680,2079,7.159524795587244
2681,2681,2074,3.4292832770040906
2682,2682,2068,-1.249130518693653
2683,2683,2063,-4.880013595381255
2684,2684,2057,-9.46778541225359
2685,2685,2053,-12.016901362318688
2686,2686,2049,-14.531920613356192
2687,2687,2047,-15.017450941886372
2688,2688,2044,-16.478200005734163
2689,2689,2040,-18.91892513456905
2690,2690,2036,-21.34441508980393
2691,2691,2034,-21.759450506918515
2692,2692,2032,-22.16882312948022
2693,2693,2031,-21.577248598460976
2694,2694,2030,-20.98939674590757
2695,2695,2028,-21.409820599067473
2696,2696,2027,-20.842880378473936
2697,2697,2027,-19.2927640053943
2698,2698,2028,-16.763503182824905
2699,2699,2028,-15.259108114657959
2700,2700,2028,-13.783644784283036
2701,2701,2028,-12.341286326279045
2702,2702,2028,-10.936252578564346
2703,2703,2029,-8.572685655297088
2704,2704,2030,-6.254514584014282
2705,2705,2031,-3.9852878598475745
2706,2706,2031,-2.7680545169224953
2707,2707,2030,-2.6052994020015365
2708,2708,2029,-2.498965205569513
2709,2709,2029,-1.450535203846286
2710,2710,2029,-0.46112372290835557
2711,2711,2029,0.46840425659067153
2712,2712,2029,1.3373754707804313
2713,2713,2029,2.145254747436405
2714,2714,2029,2.8915803753711273
2715,2715,2029,3.5759319568975583
2716,2716,2030,5.197871948308083
2717,2717,2029,4.756972465611003
2718,2718,2029,5.252900121707841
2719,2719,2029,5.68551002279405
2720,2720,2029,6.0550496886254574
2721,2721,2028,5.362248583976327
2722,2722,2028,5.608448024617905
2723,2723,2029,6.7955533099655
2724,2724,2029,6.925915281024584
2725,2725,2029,7.002184782884445
2726,2726,2029,7.027140605060281
2727,2727,2029,7.0035547711845965
2728,2728,2030,7.934207034750719
2729,2729,2030,7.821914926513592
2730,2730,2030,7.669594956616844
2731,2731,2029,6.480274949556224
2732,2732,2028,5.257100457675247
2733,2733,2027,4.00332464766509
2734,2734,2027,3.7223031138021208
2735,2735,2027,3.417461670505513
2736,2736,2027,3.092263845557972
2737,2737,2026,1.750204979685297
2738,2738,2025,0.39481148387071174
2739,2739,2023,-1.9704080565151632
2740,2740,2022,-3.341920924088974
2741,2741,2021,-4.716250837454236
2742,2742,2020,-6.089941074530461
2743,2743,2020,-6.459602710393808
2744,2744,2020,-6.821946568776669
2745,2745,2020,-7.173782835437999
2746,2746,2020,-7.512030838668417
2747,2747,2019,-8.833728243356775
2748,2748,2018,-10.13601842217103
2749,2749,2017,-11.416201260889672
2750,2750,2018,-10.671729864049091
2751,2751,2020,-8.900259810830525
2752,2752,2023,-6.099649507734653
2753,2753,2026,-3.267959628795664
2754,2754,2028,-1.4034357298372808
2755,2755,2028,-1.5045274008537461
2756,2756,2028,-1.5698799090069429
2757,2757,2027,-2.598404820953287
2758,2758,2027,-2.589210790340875
2759,2759,2028,-1.541677384975301
2760,2760,2030,0.5445629661939018
2761,2761,2031,1.6696334989162258
2762,2762,2031,1.8334226271517213
2763,2763,2030,1.0355839533733526
2764,2764,2027,-1.7244893992541526
2765,2765,2026,-2.447609340021902
2766,2766,2024,-4.134874819613607
2767,2767,2025,-2.7875820950716577
2768,2768,2026,-1.4072940632363684
2769,2769,2027,0.0041981388810192755
2770,2770,2028,1.4448772669388301
2771,2771,2029,2.912519034512326
2772,2772,2031,5.4046962019680915
2773,2773,2033,7.918794280234643
2774,2774,2035,10.452038754873445
2775,2775,2037,13.001480441143201
2776,2776,2039,15.56400821495317
2777,2777,2039,16.13634118061316
2778,2778,2038,15.715069503692725
2779,2779,2037,15.296674535117742
2780,2780,2035,13.877554875748078
2781,2781,2034,13.454058326610378
2782,2782,2033,13.022466244959638
2783,2783,2033,13.579004867122778
2784,2784,2034,15.119867617960912
2785,2785,2035,16.64124291976666
2786,2786,2035,17.139325969217982
2787,2787,2035,17.610346527650265
2788,2788,2034,17.050575454859413
2789,2789,2035,18.456331190176826
2790,2790,2036,19.82397009667918
2791,2791,2038,22.149956643351437
2792,2792,2039,23.43084790042681
2793,2793,2040,24.663352295084
2794,2794,2039,23.844302633344352
2795,2795,2036,20.97070854089674
2796,2796,2037,22.039781573581656
2797,2797,2045,30.048890343487322
2798,2798,2062,46.99559489988872
2799,2799,2085,69.87765904908775
2800,2800,2103,87.69302450572098
2801,2801,2103,87.4398535205492
2802,2802,2079,63.11659737522704
2803,2803,2033,16.722021232139554
2804,2804,1970,-46.74483607874754
2805,2805,1905,-112.28460726276683
2806,2806,1848,-169.89769222025058
2807,2807,1813,-205.58419479296873
2808,2808,1804,-215.3440152580315
2809,2809,1825,-195.1767626717167
2810,2810,1869,-152.08182304255624
2811,2811,1925,-97.05830053617223
2812,2812,1979,-44.10503452957419
2813,2813,2021,-3.2205644825610618
2814,2814,2046,20.596872040779424
2815,2815,2056,29.349313666478523
2816,2816,2060,32.03910175783149
2817,2817,2060,30.66879915580998
2818,2818,2059,28.24122512371236
2819,2819,2058,25.759473005837215
2820,2820,2058,24.22687885125841
2821,2821,2059,23.64701569049321
2822,2822,2062,25.02364970057605
2823,2823,2064,25.360679795606572
2824,2824,2066,25.66218838898634
2825,2825,2067,24.932405960771156
2826,2826,2067,23.175754804917915
2827,2827,2066,20.396806652333012
2828,2828,2066,18.60029817487857
2829,2829,2066,16.7910553308569
2830,2830,2067,15.973981486376516
2831,2831,2068,15.154018344863939
2832,2832,2068,13.336159840473323
2833,2833,2068,11.525455208476977
2834,2834,2068,9.726963773069341
2835,2835,2067,6.945746946440599
2836,2836,2068,6.186876349873555
2837,2837,2068,4.455340534760761
2838,2838,2070,4.756101068355932
2839,2839,2071,4.093967499582724
2840,2840,2073,4.473691287048469
2841,2841,2074,3.8998893011626157
2842,2842,2074,2.3770691404210016
2843,2843,2074,0.9096176317579463
2844,2844,2074,-0.4982475284664183
2845,2845,2074,-1.8424987521416476
2846,2846,2075,-2.1192975172523396
2847,2847,2077,-1.3250300639777444
2848,2848,2078,-1.4563156174305818
2849,2849,2078,-2.509997791154278
2850,2850,2078,-3.483151135523314
2851,2851,2078,-4.373123977481822
2852,2852,2080,-3.1775214805575107
2853,2853,2083,-0.8942303480506189
2854,2854,2086,1.478589422882175
2855,2855,2089,3.9424924962354604
2856,2856,2091,5.498721273847325
2857,2857,2092,6.148212033434367
2858,2858,2092,5.891586320854305
2859,2859,2093,6.729170384909953
2860,2860,2094,7.661010482958498
2861,2861,2096,9.686857326579016
2862,2862,2098,11.806146215090365
2863,2863,2100,14.018004846389177
2864,2864,2101,15.321224946474121
2865,2865,2102,16.714325906917132
2866,2866,2103,18.195555714882445
2867,2867,2104,19.762892956329985
2868,2868,2103,19.414044568350874
2869,2869,2102,19.146444559311206
2870,2870,2100,17.95724828396468
2871,2871,2097,15.843333021796074
2872,2872,2094,13.801374218128863
2873,2873,2091,11.82787992104343
2874,2874,2088,9.919188641879696
2875,2875,2085,8.071462638865764
2876,2876,2081,5.280676534200562
2877,2877,2076,1.5426332077322682
2878,2878,2071,-2.147009121319096
2879,2879,2067,-4.792735961077795
2880,2880,2061,-9.399148499891924
2881,2881,2056,-12.970892575831456
2882,2882,2051,-16.512726028298708
2883,2883,2048,-18.029452396746436
2884,2884,2047,-17.525918407828737
2885,2885,2046,-17.00702745979674
2886,2886,2046,-15.477673181989491
2887,2887,2045,-14.942731671776174
2888,2888,2042,-16.407021903165287
2889,2889,2037,-19.87528773280325
2890,2890,2034,-21.352164235403613
2891,2891,2033,-20.842203118117833
2892,2892,2034,-18.349845222599
2893,2893,2035,-15.879414921320835
2894,2894,2036,-13.435061763234593
2895,2895,2036,-12.020804195036945
2896,2896,2036,-10.640488585493449
2897,2897,2035,-10.297786255636332
2898,2898,2035,-8.996143312387995
2899,2899,2035,-7.73882199517326
2900,2900,2035,-6.528857612111316
2901,2901,2035,-5.369043167816794
2902,2902,2036,-3.261840280909608
2903,2903,2036,-2.2093179639162797
2904,2904,2037,-0.21308751951437865
2905,2905,2038,1.7255264601810136
2906,2906,2039,3.6052552516827645
2907,2907,2039,4.424654479055813
2908,2908,2038,4.182032249642312
2909,2909,2037,3.875537132286726
2910,2910,2036,3.503331278614171
2911,2911,2036,4.0639123717849115
2912,2912,2036,4.55636518882472
2913,2913,2035,3.980584984904543
2914,2914,2034,3.3373601805471083
2915,2915,2035,4.628287382380607
2916,2916,2036,5.855598736578968
2917,2917,2038,8.02191265283704
2918,2918,2040,10.129908551024915
2919,2919,2039,9.182187592065027
2920,2920,2036,6.181239848119346
2921,2921,2034,4.1295714035088995
2922,2922,2033,3.0297511866346447
2923,2923,2033,2.8845212496431674
2924,2924,2035,4.696810289002752
2925,2925,2036,5.469703830867289
2926,2926,2036,5.206456434330362
2927,2927,2035,3.9104179409662874
2928,2928,2034,2.585055299457679
2929,2929,2033,1.2339366215239624
2930,2930,2032,-0.13931180727220727
2931,2931,2032,-0.5309848019595342
2932,2932,2032,-0.9373524293709896
2933,2933,2032,-1.3546504187020794
2934,2934,2033,-0.7790974430123532
2935,2935,2033,-1.2069123673500024
2936,2936,2033,-1.634299408048642
2937,2937,2033,-2.0575185873314243
2938,2938,2032,-3.472902548794953
2939,2939,2032,-3.8768837149513633
2940,2940,2031,-5.266005179113593
2941,2941,2033,-3.636883178592028
2942,2942,2033,-3.9862812134186942
2943,2943,2033,-4.311060979027557
2944,2944,2032,-5.608228683642832
2945,2945,2031,-6.874975360131982
2946,2946,2030,-8.108663086167308
2947,2947,2031,-7.306842518845803
2948,2948,2033,-5.4672909530475895
2949,2949,2035,-3.5879961353057177
2950,2950,2035,-3.667149892181661
2951,2951,2034,-4.703156918167463
2952,2952,2033,-5.69464790560618
2953,2953,2033,-5.640486315284187
2954,2954,2033,-5.539784802454864
2955,2955,2034,-4.391909855354362
2956,2956,2035,-3.1964854265741725
2957,2957,2035,-2.953395511682844
2958,2958,2035,-2.662785623075251
2959,2959,2035,-2.325079174724436
2960,2960,2035,-1.9409499975223738
2961,2961,2034,-2.5113363158456607
2962,2962,2034,-2.037405622460257
2963,2963,2034,-1.5205932224784893
2964,2964,2034,-0.9625971287554949
2965,2965,2035,0.6346494568087371
2966,2966,2036,2.2689587368056445
2967,2967,2037,3.9379445232777632
2968,2968,2038,5.639015381269058
2969,2969,2039,7.369374161820943
2970,2970,2039,8.125991838918987
2971,2971,2040,9.90566228145227
2972,2972,2042,12.704988512420938
2973,2973,2044,15.520412300906093
2974,2974,2045,17.34822305235151
2975,2975,2044,17.184604606966666
2976,2976,2043,17.02562397238611
2977,2977,2041,15.867236660289455
2978,2978,2040,15.705292510837385
2979,2979,2039,15.535552659678157
2980,2980,2038,15.353749493947237
2981,2981,2037,15.155566891699198
2982,2982,2034,12.93665800941369
2983,2983,2032,11.692700517485367
2984,2984,2032,12.419387852342112
2985,2985,2033,14.112436458923025
2986,2986,2035,16.76765161687083
2987,2987,2037,19.38091303860195
2988,2988,2038,20.948218890521275
2989,2989,2038,21.465665491599417
2990,2990,2038,21.92948547278833
2991,2991,2037,21.33606956930086
2992,2992,2036,20.682025138163567
2993,2993,2036,20.964159368129323
2994,2994,2041,26.179499119650576
2995,2995,2053,38.325245915214815
2996,2996,2073,58.398783561594755
2997,2997,2094,79.39769571762183
2998,2998,2105,90.31980931708625
2999,2999,2094,79.1632103946054
3000,3000,2059,43.92632309382978
3001,3001,2003,-12.39214034828511
3002,3002,1935,-80.79314539997422
3003,3003,1870,-146.27733939449166
3004,3004,1820,-196.84509422231753
3005,3005,1795,-222.4964967856962
3006,3006,1801,-217.23135650941384
3007,3007,1835,-184.049240622365
3008,3008,1888,-131.94945719756677
3009,3009,1948,-72.93102870340793
3010,3010,2000,-21.99268279215346
3011,3011,2037,13.86719307860575
3012,3012,2056,31.650526553429565
3013,3013,2062,36.359587513499335
3014,3014,2063,35.99694472476479
3015,3015,2061,32.56539996706911
3016,3016,2061,31.068049139539866
3017,3017,2062,30.508214245458934
3018,3018,2063,29.889443738396803
3019,3019,2065,30.21553323885167
3020,3020,2065,28.490481233139757
3021,3021,2065,26.718523956290074
3022,3022,2066,25.904100179188525
3023,3023,2066,24.051825812704482
3024,3024,2067,23.16651561108887
3025,3025,2069,23.253113565922256
3026,3026,2069,21.31667069088931
3027,3027,2069,19.362370199499193
3028,3028,2070,18.39548822357822
3029,3029,2070,16.42137543717455
3030,3030,2070,14.445459716596899
3031,3031,2070,12.473216565792526
3032,3032,2070,10.510123250585746
3033,3033,2071,9.561666111791288
3034,3034,2072,8.633305145064007
3035,3035,2072,6.73046518523981
3036,3036,2073,5.8585432023896225
3037,3037,2073,4.022830432901285
3038,3038,2072,1.2285361282651772
3039,3039,2073,0.48077430400040955
3040,3040,2074,-0.2155078476695107
3041,3041,2076,0.14451621942604387
3042,3042,2078,0.5654977016505995
3043,3043,2079,0.05190635796103127
3044,3044,2079,-1.391969641831868
3045,3045,2079,-2.762049845731012
3046,3046,2080,-3.0544708204470066
3047,3047,2081,-3.2656320117628943
3048,3048,2082,-3.3921820127916145
3049,3049,2083,-3.431046571093239
3050,3050,2084,-3.3794397129414104
3051,3051,2085,-3.2348418782969346
3052,3052,2087,-1.9950143632873236
3053,3053,2090,0.34199269957172973
3054,3054,2093,2.777833550093538
3055,3055,2095,4.313834492064281
3056,3056,2096,4.950984098604423
3057,3057,2098,6.6899458979287445
3058,3058,2098,6.530997505209884
3059,3059,2099,7.474120318401095
3060,3060,2100,8.518957076227796
3061,3061,2101,9.664861385534849
3062,3062,2103,11.910868505974879
3063,3063,2103,12.255651281677904
3064,3064,2104,13.69759995688945
3065,3065,2105,15.234753880449649
3066,3066,2106,16.864878234247364
3067,3067,2106,17.585419105731035
3068,3068,2105,17.393566244906943
3069,3069,2103,16.286247530381786
3070,3070,2100,14.260129884937678
3071,3071,2097,12.31163710262654
3072,3072,2094,10.43695257466566
3073,3073,2092,9.632065528590736
3074,3074,2089,7.892732663235898
3075,3075,2085,5.214531203087235
3076,3076,2080,1.5928539631806196
3077,3077,2073,-3.9770682908701422
3078,3078,2066,-9.500149146674469
3079,3079,2060,-13.9814389751904
3080,3080,2056,-16.4260796301332
3081,3081,2053,-17.839306785418586
3082,3082,2050,-19.226409412707856
3083,3083,2048,-19.59269978419973
3084,3084,2047,-18.94352074562367
3085,3085,2045,-19.284210319575863
3086,3086,2043,-19.620087653045605
3087,3087,2042,-18.956449693386343
3088,3088,2040,-19.298568017523717
3089,3089,2038,-19.65163787896532
3090,3090,2037,-19.02075430537839
3091,3091,2036,-18.41092599569835
3092,3092,2036,-16.82700422475846
3093,3093,2037,-14.273724260053527
3094,3094,2038,-11.755678040932713
3095,3095,2039,-9.277287374659547
3096,3096,2039,-7.842799015838297
3097,3097,2038,-7.4561953889651775
3098,3098,2038,-6.121154580204757
3099,3099,2037,-5.84104890063598
3100,3100,2036,-5.618928491461978
3101,3101,2036,-4.457644165717437
3102,3102,2037,-2.3599809492741954
3103,3103,2038,-0.3287009302143856
3104,3104,2040,2.6334827269036305
3105,3105,2041,4.5239521660932835
3106,3106,2042,6.34038442259218
3107,3107,2042,7.080837018433781
3108,3108,2041,6.74390600765597
3109,3109,2040,6.3287911707207485
3110,3110,2040,6.835396802676264
3111,3111,2040,7.264254979759003
3112,3112,2040,7.616410357751186
3113,3113,2040,7.89315463009216
3114,3114,2040,8.095797386462081
3115,3115,2040,8.225510859585835
3116,3116,2041,9.28333944160102
3117,3117,2041,9.270309943303001
3118,3118,2041,9.187616234288512
3119,3119,2041,9.03676117137321
3120,3120,2040,7.819730340262773
3121,3121,2040,7.539090518119729
3122,3122,2040,7.197990973906873
3123,3123,2040,6.800099070446298
3124,3124,2040,6.349411171917105
3125,3125,2041,6.8501150223302565
3126,3126,2042,7.306386444021424
3127,3127,2042,6.7223718204134055
3128,3128,2043,7.10220771753102
3129,3129,2044,7.450088586548604
3130,3130,2043,5.770281195521541
3131,3131,2042,4.067186959400158
3132,3132,2042,3.3452760105662795
3133,3133,2041,1.60905839907443
3134,3134,2041,0.8631030997033955
3135,3135,2043,2.1119928055585344
3136,3136,2044,2.3602680030588377
3137,3137,2045,2.6124936842370863
3138,3138,2044,0.8731607788093547
3139,3139,2043,-0.8532522342922473
3140,3140,2041,-3.5623668216059485
3141,3141,2040,-5.249858181466144
3142,3142,2040,-5.911531368860883
3143,3143,2040,-6.543332942288064
3144,3144,2041,-6.1413301035652506
3145,3145,2042,-5.70176936855359
3146,3146,2042,-6.221081341040558
3147,3147,2042,-6.695863465058791
3148,3148,2041,-8.122915399657778
3149,3149,2040,-9.499241513186465
3150,3150,2039,-10.822089811518378
3151,3151,2039,-11.088942037081589
3152,3152,2040,-10.297545576976384
3153,3153,2041,-9.445891133666843
3154,3154,2042,-8.53222141902325
3155,3155,2042,-8.555049400003753
3156,3156,2040,-10.513159426141446
3157,3157,2038,-12.405628644899931
3158,3158,2037,-13.231841951048484
3159,3159,2039,-10.99148441012485
3160,3160,2042,-7.68455930469549
3161,3161,2044,-5.3113677236052155
3162,3162,2044,-4.872492303595763
3163,3163,2041,-7.36880113706458
3164,3164,2039,-8.801429177037107
3165,3165,2039,-8.171817151813304
3166,3166,2040,-6.481701348479688
3167,3167,2043,-2.733086359879646
3168,3168,2044,-0.9282754253086241
3169,3169,2044,-0.06983028762942212
3170,3170,2041,-2.1605940439442337
3171,3171,2039,-3.2036329992283075
3172,3172,2039,-2.2022841876642127
3173,3173,2041,0.8399100909013786
3174,3174,2044,4.919193914462612
3175,3175,2047,9.031627492707635
3176,3176,2049,12.173091010291305
3177,3177,2050,14.339273124124652
3178,3178,2050,15.52570286840107
3179,3179,2050,16.72778222408588
3180,3180,2050,17.940792457295547
3181,3181,2049,18.159901048516623
3182,3182,2048,18.380217085042595
3183,3183,2048,19.596766814862555
3184,3184,2046,18.80453346169956
3185,3185,2043,16.998507869453327
3186,3186,2041,16.1736913620476
3187,3187,2039,15.32508269365156
3188,3188,2038,15.447702311406456
3189,3189,2037,15.536579354922823
3190,3190,2037,16.58680265300925
3191,3191,2037,17.59353936662377
3192,3192,2037,18.55210125199587
3193,3193,2038,20.457941233925716
3194,3194,2037,20.306644274994035
3195,3195,2036,20.093981872280956
3196,3196,2035,19.815902065592386
3197,3197,2035,20.468540141423393
3198,3198,2035,21.04823934526491
3199,3199,2035,21.55158153413488
3200,3200,2035,21.975384928490772
3201,3201,2040,27.316743743923077
3202,3202,2052,39.57299760432985
3203,3203,2072,59.741774704927515
3204,3204,2093,80.8209433818023
3205,3205,2103,90.80863727863796
3206,3206,2092,79.7033114415386
3207,3207,2055,42.50374403258726
3208,3208,1997,-15.790920339590693
3209,3209,1927,-86.18121904198594
3210,3210,1861,-152.6673089512993
3211,3211,1812,-202.24903851115147
3212,3212,1792,-222.9259250620774
3213,3213,1803,-212.69721336798648
3214,3214,1841,-175.56187659900326
3215,3215,1896,-121.51860782678877
3216,3216,1955,-63.56576470793726
3217,3217,2003,-16.701400662248677
3218,3218,2035,14.076814834782255
3219,3219,2049,26.77152009014685
3220,3220,2054,30.38567473367275
3221,3221,2054,28.92246562176513
3222,3222,2054,27.38537162391371
3223,3223,2054,25.77813134286522
3224,3224,2056,26.104768540207058
3225,3225,2058,26.369536477397748
3226,3226,2059,25.576909403539958
3227,3227,2060,24.731573363975265
3228,3228,2062,24.83840024694124
3229,3229,2063,23.902426418906963
3230,3230,2065,23.928873334975453
3231,3231,2067,23.92309286110237
3232,3232,2068,22.89057601986965
3233,3233,2068,20.83693993705944
3234,3234,2069,19.767893025126856
3235,3235,2071,19.689215750964653
3236,3236,2072,18.606730558899052
3237,3237,2074,18.526292892849774
3238,3238,2074,16.453744692184188
3239,3239,2074,14.394926591137036
3240,3240,2074,12.355663463645001
3241,3241,2074,10.341734103342322
3242,3242,2074,8.358894291386028
3243,3243,2075,7.412809399455071
3244,3244,2075,5.509024681555271
3245,3245,2076,4.652951804509762
3246,3246,2076,2.8498184347371236
3247,3247,2076,1.1047090709575986
3248,3248,2076,-0.5774415451014869
3249,3249,2077,-1.1918758092400434
3250,3250,2077,-2.7340505858495368
3251,3251,2078,-3.1996470305081637
3252,3252,2079,-3.5846223053950013
3253,3253,2081,-2.8851644457282135
3254,3254,2083,-2.0977156915940722
3255,3255,2085,-1.2189896119307235
3256,3256,2087,-0.24598733261557815
3257,3257,2088,-0.17601274847522586
3258,3258,2088,-1.0066705395578666
3259,3259,2089,-0.7358684404890905
3260,3260,2091,0.6381441567845805
3261,3261,2094,3.1168027825669427
3262,3262,2097,5.701175615070583
3263,3263,2098,6.392003001910236
3264,3264,2099,7.189711525182094
3265,3265,2099,7.094375934377327
3266,3266,2099,7.105767598215546
3267,3267,2099,7.223329465001246
3268,3268,2100,8.446168145960755
3269,3269,2100,8.773057827230808
3270,3270,2101,10.202461328912893
3271,3271,2102,11.732488257936378
3272,3272,2103,13.360966332105527
3273,3273,2103,14.085428377554422
3274,3274,2103,14.903137716068963
3275,3275,2102,14.81105594159125
3276,3276,2101,14.805865056397987
3277,3277,2098,12.883963819343053
3278,3278,2095,11.041507605132715
3279,3279,2092,9.274422441243505
3280,3280,2089,7.578419820776524
3281,3281,2085,4.949017631747281
3282,3282,2081,2.3815617400322724
3283,3283,2076,-1.1287890916472851
3284,3284,2071,-4.587013791834858
3285,3285,2066,-7.998205943875869
3286,3286,2061,-11.367571693630923
3287,3287,2056,-14.700400618401751
3288,3288,2050,-19.00207362516946
3289,3289,2045,-22.278001150024476
3290,3290,2042,-23.533646493036024
3291,3291,2041,-22.774474443725026
3292,3292,2042,-20.005958593625024
3293,3293,2043,-17.233562119047388
3294,3294,2042,-16.46269743843633
3295,3295,2039,-17.698664987503882
3296,3296,2036,-18.946603238348928
3297,3297,2034,-19.21148730942392
3298,3298,2032,-19.498170530685123
3299,3299,2033,-16.811463151155138
3300,3300,2033,-15.156322670074257
3301,3301,2034,-12.537766457888058
3302,3302,2035,-9.960880560444908
3303,3303,2035,-8.430690568105167
3304,3304,2035,-6.951943094450053
3305,3305,2035,-5.528990380567821
3306,3306,2035,-4.165666237767527
3307,3307,2035,-2.8652333837491186
3308,3308,2035,-1.6304071545399563
3309,3309,2035,-0.4634442908214319
3310,3310,2035,0.6337463698189718
3311,3311,2035,1.6594610816834199
3312,3312,2036,3.6121382777099793
3313,3313,2037,5.4903165480649365
3314,3314,2037,6.2926823837635455
3315,3315,2038,8.018196606719531
3316,3316,2038,8.66607011495044
3317,3317,2038,9.23585559317207
3318,3318,2037,8.727399202363525
3319,3319,2036,8.14084983185504
3320,3320,2035,7.476694017458962
3321,3321,2036,8.735747261092538
3322,3322,2037,9.91921380353315
3323,3323,2038,11.028659724512874
3324,3324,2039,12.065899088176057
3325,3325,2039,12.03286240047374
3326,3326,2038,10.931500823596389
3327,3327,2037,9.76372160349558
3328,3328,2036,8.531472693395697
3329,3329,2036,8.236859420157643
3330,3330,2037,8.882293493611233
3331,3331,2037,8.470636910309073
3332,3332,2037,8.005292054239833
3333,3333,2037,7.49014668716077
3334,3334,2036,5.929517446190612
3335,3335,2036,5.327984924764879
3336,3336,2035,3.690179087250171
3337,3337,2035,3.020739529480523
3338,3338,2035,2.3242058672301655
3339,3339,2035,1.6050308207589423
3340,3340,2035,0.8676949573287418
3341,3341,2035,0.11669911542125311
3342,3342,2035,-0.6434217053512943
3343,3343,2035,-1.4081164072034307
3344,3344,2035,-2.1728464163637287
3345,3345,2036,-1.9331195845224087
3346,3346,2036,-2.684507985855932
3347,3347,2037,-2.4226068197482165
3348,3348,2037,-3.1431264382422475
3349,3349,2036,-4.841877371899964
3350,3350,2035,-6.514781565600426
3351,3351,2034,-8.157909803859638
3352,3352,2034,-8.767465222271346
3353,3353,2036,-7.3397928826530485
3354,3354,2038,-5.87143151254979
3355,3355,2040,-4.359100548950329
3356,3356,2041,-3.7997289684161046
3357,3357,2040,-5.190483314765647
3358,3358,2038,-7.528725606593998
3359,3359,2036,-9.81207698233414
3360,3360,2036,-10.038379081102146
3361,3361,2037,-9.20575593857447
3362,3362,2037,-9.312610923824309
3363,3363,2038,-8.357596019157013
3364,3364,2039,-7.339675964654769
3365,3365,2040,-6.258068584796971
3366,3366,2040,-6.112269450407966
3367,3367,2039,-6.902022053061661
3368,3368,2039,-6.627356274063571
3369,3369,2039,-6.288625869395966
3370,3370,2039,-5.886507589367018
3371,3371,2039,-5.4219938502026634
3372,3372,2040,-3.89636290199853
3373,3373,2040,-3.3111531167355723
3374,3374,2040,-2.668146930992471
3375,3375,2039,-2.969369737011811
3376,3376,2038,-3.2171144344265654
3377,3377,2037,-3.413938468822594
3378,3378,2036,-3.5626812223924413
3379,3379,2036,-2.6664058047270536
3380,3380,2037,-0.7283880004611074
3381,3381,2038,1.2479061901642723
3382,3382,2040,4.258849131054199
3383,3383,2041,6.300606201023881
3384,3384,2043,9.369219147787353
3385,3385,2044,11.460567373206388
3386,3386,2045,13.570399169061357
3387,3387,2045,14.694331517235335
3388,3388,2045,15.82788759844645
3389,3389,2044,15.966470710823605
3390,3390,2042,15.105418643215996
3391,3391,2041,15.24002626860352
3392,3392,2039,14.36555241780805
3393,3393,2036,12.477248227031666
3394,3394,2034,11.570385455654657
3395,3395,2033,11.640220820839541
3396,3396,2033,12.682045694014395
3397,3397,2033,13.691198508035946
3398,3398,2033,14.663093070797824
3399,3399,2033,15.593230502026902
3400,3400,2033,16.47719481184809
3401,3401,2033,17.310669491460114
3402,3402,2034,19.089469619954436
3403,3403,2034,19.809557544593215
3404,3404,2034,20.467079467826007
3405,3405,2034,21.058380130944705
3406,3406,2034,21.580000906450348
3407,3407,2033,21.02867716112386
3408,3408,2033,21.401382901877803
3409,3409,2040,28.695337382895346
3410,3410,2055,43.90800022153985
3411,3411,2077,66.03708689719268
3412,3412,2096,85.08054061622623
3413,3413,2101,90.03656191202671
3414,3414,2083,71.90365328645898
3415,3415,2041,29.68065758940927
3416,3416,1979,-32.63327403987434
3417,3417,1910,-102.03861392154224
3418,3418,1847,-165.53554527181996
3419,3419,1806,-207.1239333828018
3420,3420,1794,-219.80339927592976
3421,3421,1815,-199.57327698586087
3422,3422,1861,-154.4326733203096
3423,3423,1919,-97.38040065861236
3424,3424,1976,-41.414996120924386
3425,3425,2017,-1.534704470225237
3426,3426,2041,21.26258060140794
3427,3427,2050,28.9792621274755
3428,3428,2053,30.61805406249975
3429,3429,2053,29.181925160116634
3430,3430,2054,28.674116536524252
3431,3431,2055,28.09805701446502
3432,3432,2057,28.457410921044843
3433,3433,2059,28.756044937872474
3434,3434,2061,28.998031602239333
3435,3435,2062,28.187668217425625
3436,3436,2063,27.329489656458165
3437,3437,2063,25.428189820753772
3438,3438,2063,23.488627836071778
3439,3439,2063,21.515764346825105
3440,3440,2064,20.5146773437702
3441,3441,2065,19.490518891663214
3442,3442,2066,18.44855689024469
3443,3443,2068,18.394147132492762
3444,3444,2069,17.332683759489434
3445,3445,2069,15.269618866239142
3446,3446,2069,13.210417934063457
3447,3447,2069,11.160541986966077
3448,3448,2070,10.125440460429477
3449,3449,2071,9.110506765381498
3450,3450,2072,8.121076633306338
3451,3451,2072,6.162410627385903
3452,3452,2072,4.239714272735197
3453,3453,2072,2.358094422625907
3454,3454,2073,1.5225426423352175
3455,3455,2075,1.737919078217732
3456,3456,2076,1.0088994669260556
3457,3457,2077,0.3399867508578689
3458,3458,2078,-0.26450336129841645
3459,3459,2078,-1.8004456329678096
3460,3460,2078,-3.263881318628511
3461,3461,2078,-4.651057479135886
3462,3462,2079,-4.958460083418493
3463,3463,2080,-5.182851554791537
3464,3464,2082,-4.321270020421593
3465,3465,2084,-3.3710277843780307
3466,3466,2086,-2.3296930942181273
3467,3467,2088,-1.1950922604296221
3468,3468,2090,0.034683846733081225
3469,3469,2091,0.3612263209953799
3470,3470,2092,0.7858305412415314
3471,3471,2092,0.309460927211215
3472,3472,2094,1.9328126791069549
3473,3473,2096,3.6562729660168785
3474,3474,2099,6.479952383118684
3475,3475,2102,9.403669466156623
3476,3476,2103,10.426914910337208
3477,3477,2104,11.548902232487213
3478,3478,2105,12.768528875361659
3479,3479,2105,13.08438628661817
3480,3480,2106,14.494786918036315
3481,3481,2107,15.997760175555474
3482,3482,2106,15.591049361091956
3483,3483,2105,15.27215748476424
3484,3484,2103,14.03834055506254
3485,3485,2102,13.886617789672782
3486,3486,2100,12.813734618729498
3487,3487,2097,10.81623833625908
3488,3488,2093,7.890469111966885
3489,3489,2089,5.032567598643807
3490,3490,2083,0.2384671351369132
3491,3491,2078,-3.4960280511011224
3492,3492,2072,-8.175281414226845
3493,3493,2067,-11.80376079165237
3494,3494,2062,-15.386038734250006
3495,3495,2059,-16.92679780315574
3496,3496,2055,-19.430856992336516
3497,3497,2053,-19.903085956967725
3498,3498,2051,-20.34842568802363
3499,3499,2049,-20.77182361908804
3500,3500,2047,-21.178216571217575
3501,3501,2045,-21.572545806200452
3502,3502,2044,-20.959692472097146
3503,3503,2044,-19.34447225168098
